-0.46223732433847875,-0.5355094239383308,-0.07327209635463464,-0.19211431607527443,-0.2997183914919054,0.5011410782376107,-0.47370138950092316,-0.3698914700374807,0.2638321765889863,0.8715839440626019,-0.34530114467036976,-0.021598078121008654
-0.4683453880061652,-0.5446831540527833,-0.0763377839519172,-0.1925395644787905,-0.30796381828231695,0.5055838835079075,-0.47076618325610803,-0.37269437981067605,0.25637556824807883,0.8678172881725997,-0.3530945589083925,-0.024675381313639347
-0.4878103448647829,-0.5640307007658567,-0.07622036522022804,-0.2057949944818545,-0.32012550969515685,0.5259205414536282,-0.4649442343667991,-0.3658577679677414,0.25152719683951374,0.868912124370152,-0.3582357062840022,-0.030488146554048932
-0.5051731211577241,-0.5863843691976758,-0.0812111979883734,-0.2125128745145333,-0.3306737049315895,0.5495163842364661,-0.45400058261563647,-0.36004672367308166,0.2513462934793851,0.8631865634840885,-0.3570160946116786,-0.029942425136512484
-0.5207605029128062,-0.608917269796463,-0.08815674384706944,-0.21573519846291378,-0.3459570270414406,0.5666772585398921,-0.44019146674405674,-0.35272098677171343,0.24938628206333555,0.8564515267343681,-0.36370836512188526,-0.03568598645729999
-0.5393659160470582,-0.6321921278303877,-0.09282626699497959,-0.22363020472236067,-0.3628686328413814,0.5859470685752933,-0.43280731581735205,-0.3513489824151731,0.23980614559609534,0.8504068462591424,-0.3777152905311211,-0.05064636841067175
-0.5564086763587344,-0.6554951427577921,-0.09908647571821189,-0.22866110497983838,-0.37347979237486373,0.6097629217618243,-0.434456062185076,-0.3582357062840022,0.22866110497983838,0.8384240267416627,-0.38872384118910835,-0.060976293108097865
-0.56818411306833,-0.6777182060965491,-0.10953404398916744,-0.2288850613929081,-0.38828146056781837,0.6275460344467703,-0.435009392950183,-0.3581830059840184,0.22253333266598843,0.8255352274585691,-0.39944153523707293,-0.0709774032992525
-0.5755660944086305,-0.7007780913586943,-0.12521200765777296,-0.22603680448948088,-0.41268308467397985,0.6399730767783538,-0.43242286513107686,-0.3602708278074785,0.21540426907404459,0.8162778912169748,-0.4115872418093896,-0.08801136673391782
-0.5804341482000651,-0.72282321191863,-0.1423890798913144,-0.21788906470621633,-0.4314040910780514,0.6509944616820365,-0.43620730070663416,-0.3679554824015062,0.19956371116810168,0.8014806436279436,-0.42244053609543375,-0.10345148785690389
-0.5868968112638405,-0.7393375603426051,-0.15244073044045608,-0.21341701888897685,-0.4420781238688152,0.6631171671649144,-0.4420781238688152,-0.37347979237486373,0.1829288839838707,0.7850697813385727,-0.434456062185076,-0.11433055248991919
-0.592558317269912,-0.7501654921306243,-0.15760719211600366,-0.21389691394500368,-0.45333525637813776,0.6747724449309509,-0.44150636298901724,-0.3835096457364872,0.17130162292874437,0.7728946705343326,-0.4458667194673216,-0.125595381601742
-0.5971049719148466,-0.7620140102059569,-0.1649090258475583,-0.21143346061538193,-0.46197053868291893,0.6820536476580669,-0.4444879145287921,-0.397488706942405,0.15956277753260506,0.7611620840593116,-0.4563073676431697,-0.13694835936691072
-0.6043462772023299,-0.7719953302993711,-0.1676490248245073,-0.21587501735319956,-0.4659135197861066,0.6873655563471035,-0.45153448452707323,-0.4056938281114733,0.14895541803150852,0.750590848398362,-0.46905604686897145,-0.1488785898217698
-0.6097629217618243,-0.7774476823782167,-0.1676847978930092,-0.2210390619344076,-0.47256625877392133,0.6936053393466374,-0.45732220995967676,-0.411589988963709,0.1371966536687488,0.7393375603426051,-0.4801883204576606,-0.16006275484757843
-0.6089371790442574,-0.7822929893691128,-0.17335581397179892,-0.21438453716496667,-0.4788511354866114,0.698560277453862,-0.4630724422072564,-0.4173374120863054,0.12397429076827307,0.7256887672070154,-0.4855499138956343,-0.16603454234228585
-0.6124487327288755,-0.7885878718787881,-0.17613911356257717,-0.2161836879086857,-0.47996947994820155,0.7052432715489011,-0.46540757061409577,-0.4218464706432476,0.12148019791826317,0.7229612202209129,-0.49176607088002955,-0.17114111240658644
-0.6182568653785686,-0.7937785737868962,-0.17552175000363382,-0.2210601360434926,-0.4805777777613772,0.7087225141244966,-0.4642624663195433,-0.42937730880259867,0.12057067782357198,0.7221917732350457,-0.4956749942053905,-0.17721256476802505
-0.6173849834455636,-0.8003138301528174,-0.1829288839838707,-0.21341701888897685,-0.4878103448647829,0.708849388160882,-0.4649442343667991,-0.434456062185076,0.11433055248991919,0.7164714125680044,-0.49543236927190526,-0.1829288839838707
-0.6160664498862923,-0.806150861142386,-0.1900843849869462,-0.2115193458186679,-0.4945681256283,0.7135778759311272,-0.46023190913730866,-0.4286733781561472,0.11363993369603871,0.7202323651024362,-0.49529181224275515,-0.18443830863484903
-0.6182749245204697,-0.8077866427188165,-0.18951167788905962,-0.21549879384778814,-0.49424309243660863,0.7181450783501571,-0.4507497917283605,-0.4249786658265905,0.11435677993977482,0.7267591027110164,-0.4941116434915642,-0.1777269298597425
-0.6149918208106872,-0.8071568883155407,-0.19216502803866503,-0.21089596940056868,-0.49678200772503833,0.7136619994932597,-0.45079704285233113,-0.4272414672763252,0.11444291514732124,0.7203747812266428,-0.49674514992508,-0.17603149365959816
-0.6097629217618243,-0.8079359291131736,-0.19817295143642377,-0.2057949944818545,-0.5030543936790275,0.708849388160882,-0.45732220995967676,-0.4268340377779537,0.11433055248991919,0.7164714125680044,-0.5030543936790275,-0.1829288839838707
-0.6089414278826659,-0.8074148200714272,-0.1984733342495824,-0.20550375831300247,-0.5030309351240017,0.7081881331191182,-0.4574821726761116,-0.42611610621314655,0.1083205703896177,0.717224258263744,-0.5031415767465283,-0.1883057391538237
-0.6090256346198282,-0.8071131830830474,-0.19808749377307583,-0.20517800951043758,-0.5028408642330413,0.707782449692592,-0.45688074749830526,-0.4273179274953959,0.10546777033286212,0.7105514238480781,-0.5024340548646072,-0.19523662121010094
-0.6101794715491917,-0.8073393655367461,-0.19715983957379388,-0.2066857186661729,-0.5015568613126918,0.709424317510557,-0.45686196448203537,-0.42530589035464816,0.10685358115611682,0.7094311418238451,-0.5024814096074995,-0.19803585450991315
-0.6173849834455636,-0.8079359291131736,-0.190550908390993,-0.21341701888897685,-0.49543236927190526,0.7164714125680044,-0.45732220995967676,-0.41921201337083136,0.10670850944448843,0.7164714125680044,-0.5030543936790275,-0.19817295143642377
-0.6188889621363834,-0.8075077834756385,-0.1886187895058805,-0.2149742953677723,-0.49372063006785327,0.7176998956040661,-0.4583172075554892,-0.41730499260438253,0.10683583299593062,0.7110670792610241,-0.5083856571608294,-0.20425549956816183
-0.6113241857763838,-0.8069259961209057,-0.19560175948378372,-0.20812509481562308,-0.49914008282095773,0.710914883507491,-0.452723840310546,-0.42438040273655464,0.10326034038175652,0.705490982529024,-0.5117607245154113,-0.2056502441451605
-0.6097163569038184,-0.8076892448302025,-0.19797283303181124,-0.20563864657274705,-0.5036953882926646,0.7081891123447421,-0.44938109101628,-0.4258833980970814,0.0972478037437921,0.7095707525647297,-0.5095657563331077,-0.20717317400365493
-0.6097629217618243,-0.8079359291131736,-0.19817295143642377,-0.2057949944818545,-0.5030543936790275,0.708849388160882,-0.4497001482759375,-0.41921201337083136,0.09908647571821189,0.708849388160882,-0.5106764180861498,-0.21341701888897685
-0.6026436167958756,-0.8066960416625828,-0.20405237397626122,-0.199853070355675,-0.5016315533218538,0.7075364877665551,-0.43914399706045487,-0.413941869632652,0.10466998681115058,0.7062040489119867,-0.5117658112817052,-0.20880118588361096
-0.6045440714490229,-0.8110402838655552,-0.2064962163204195,-0.19692396900700665,-0.5069824190094421,0.712492466992326,-0.42606139964133716,-0.4072906503214917,0.1090186542251507,0.7127002278616018,-0.5065120562882501,-0.20300389809919323
-0.6113013217762346,-0.8161729463733252,-0.2048716697189638,-0.1991469333672567,-0.5102766478461893,0.716592968503471,-0.4145875654583064,-0.4032744440750629,0.11735614685584497,0.7153624076476116,-0.502241007106303,-0.20835432725922637
-0.6173849834455636,-0.815557878967062,-0.19817295143642377,-0.2057949944818545,-0.5030543936790275,0.7164714125680044,-0.39634590287284754,-0.39634590287284754,0.12957461994247227,0.7164714125680044,-0.5030543936790275,-0.21341701888897685
-0.6380580987218086,-0.8149236632730171,-0.17686561839421322,-0.22642807426460784,-0.4916328808354258,0.7260233743336855,-0.36951515949473707,-0.37039590415913454,0.14406654862176427,0.7258756187775652,-0.5038005057308094,-0.21392247538529285
-0.670075817966656,-0.8142225811936131,-0.14414675174133182,-0.26111289349981254,-0.47562358348271094,0.7438168227592729,-0.327509338598996,-0.3330878190079644,0.1742972748235294,0.7398274265134265,-0.501102258237856,-0.2137237349371596
-0.706586506396573,-0.802280734842465,-0.09569419537314339,-0.3054371752234899,-0.4455071505197367,0.7590984898918505,-0.2675094979144454,-0.2877050035394886,0.22322781975681827,0.7630556745289025,-0.4916724477470347,-0.21359332437791628
-0.7469595847497275,-0.7850697813385727,-0.03811018261011403,-0.35061368187687986,-0.411589988963709,0.7698257325243281,-0.19817295143642377,-0.22103906193440756,0.28201535038292835,0.8003138301528174,-0.4801883204576606,-0.21341701888897685
-0.7742164571068808,-0.764385296713837,0.00983120212271397,-0.38697776982474724,-0.3783438336847734,0.7672170120401081,-0.11870182715539282,-0.1279416434750366,0.3532577002084642,0.8425587865277733,-0.46664656761872897,-0.21006807659682367
-0.7782443039374494,-0.7290236722957704,0.049220625104336925,-0.41293743531252086,-0.3371416283178011,0.7485739615152867,-0.034147352630945746,-0.006034028737630046,0.4405442928656116,0.9042390557066313,-0.42719942339428163,-0.19174616038397704
-0.7606652593737239,-0.6860471217019608,0.07461810122360626,-0.4168956880688196,-0.3024420284537872,0.7202594618454237,0.03737140697628676,0.14650056439843903,0.5354090190846906,0.990827218286307,-0.3532754857474377,-0.15277916067763841
-0.7012273637537597,-0.6326290695364251,0.0685983268343744,-0.381101816781986,-0.28201535038292835,0.6631171671649144,0.0838423989465046,0.32774757137889604,0.6402510193903137,1.0975732293499905,-0.25914923988494454,-0.09908647571821187
-0.5832860310946495,-0.5542303683687093,0.029055688969817632,-0.30228308793121395,-0.2630298265085286,0.5638110917974629,0.10693026100408008,0.5292744399465794,0.7554949429882658,1.2255468094531266,-0.13949868728749976,-0.024606298466737803
-0.42071723529699245,-0.4665808017435296,-0.04586356223522793,-0.18331930885235953,-0.25574607569761043,0.444038740630344,0.09563000945143953,0.72185741709042,0.8641087589295283,1.371566579242408,0.019739116896269164,0.08295233793504846
-0.21446752681676745,-0.367422507485059,-0.1529549584683221,-0.027722335578166214,-0.260494429856133,0.2950195979750722,0.0359989809864877,0.8781890202718861,0.961603011369659,1.534483842018577,0.21258083885052537,0.21264888986390879
0.04573222099596769,-0.24390517243239146,-0.28963739342835915,0.16768479789300922,-0.2667712829303753,0.09908647571821189,-0.07622036522022806,0.9679985907692097,1.0442189839469005,1.7073361511118148,0.4268340377779537,0.3582357062840022
0.3420148698585102,-0.11541176626049171,-0.4574266378484928,0.3996535090911954,-0.28605884003305837,-0.1146005832481204,-0.2432368939418371,0.9594586526119614,1.0920389286029033,1.8659468930236351,0.6474958817244176,0.5233113966041183
0.6397120889895697,0.0005154821619205506,-0.6391965736054317,0.6381660331245055,-0.3200674533844247,-0.3170336096963005,-0.46471367390784557,0.834380283247126,1.0942532594160523,1.9954202945507717,0.8450753924903243,0.6877241845912074
0.9084428726977991,0.09959897846468915,-0.8088438573832463,0.8539390145403778,-0.3535898442817935,-0.5010297226426511,-0.7194716277121096,0.5942023933594656,1.0424851870290932,2.0771807205677457,0.9978319224452734,0.8283332185838616
1.120439377124591,0.16006275484757843,-0.9603766409153212,1.0365969595397782,-0.39634590287284754,-0.6402510193903137,-0.9908647385438105,0.2515271968395138,0.9146444199193535,2.0731939190795563,1.0747071561286234,0.9222664443264759
1.2389371302206322,0.15988296529106608,-1.0790542464982746,1.1559955051306239,-0.4581755309392957,-0.6970242424919592,-1.2545880329172021,-0.17243574239864254,0.7122442716987487,1.9628547598178672,1.0424259794427215,0.9504059535011556
1.2307493996250454,0.10078100037695771,-1.1299684489137594,1.1749995426563704,-0.5160314985025273,-0.6605350222330539,-1.471767126183424,-0.6477753188704155,0.4586562823116018,1.7616352999475673,0.9015567952126797,0.9145304782413008
1.1057897837696786,0.0013466682439859257,-1.1044430714607467,1.1034119665008633,-0.5502055767215461,-0.5511049098134382,-1.6328062668630556,-1.122491370030349,0.16547028147761264,1.485227119014825,0.6673043421119913,0.8118784490994781
0.8765342233305082,-0.14481869671417957,-1.0213528361722997,0.952754541954965,-0.5792747868567182,-0.3658577679677414,-1.7302023734396492,-1.547273340349311,-0.1371966536687488,1.1585495737134364,0.3582357062840022,0.6478731183506697
0.5633076065179046,-0.3313551114239712,-0.8946626874723856,0.7302990711274422,-0.6094243769953425,-0.11339087887421159,-1.747237791533447,-1.890757106185283,-0.4076573237578639,0.8180693162744304,0.01530782057611681,0.4507034717129396
0.22497513018200144,-0.5202656715859545,-0.7452408527693442,0.4842376255461054,-0.6282470120969946,0.1526800057707956,-1.7000333501811125,-2.119974474303938,-0.6323515920722413,0.5041269392662515,-0.31637707079177485,0.24120587683941241
-0.09508624934410315,-0.6975616581043769,-0.6024754631792966,0.25402600962587957,-0.647308080682757,0.39889093231483796,-1.5996624315148777,-2.2094178369723494,-0.7909665302338786,0.26517493613987014,-0.5958516839165385,0.044082212827854295
-0.3658577679677414,-0.8536680755559074,-0.4878103448647829,0.060976293108097865,-0.6707391915720368,0.6097629217618243,-1.4634310718709655,-2.1646583610714916,-0.8612901745162636,0.11433055248991916,-0.8003138301528174,-0.12195258621619573
-0.5464620608814243,-0.9631191672010592,-0.4166571549135587,-0.06489903109073562,-0.6872194448030567,0.7573158922472057,-1.3170511170791863,-2.004319124423505,-0.8510338397952415,0.03658898783363083,-0.9228971627052308,-0.250267055271132
-0.6442732155106995,-1.035130262153429,-0.3908570284177825,-0.12701778232292504,-0.7084221943616407,0.8448016735356001,-1.1550139930976455,-1.7519782159685235,-0.7696798400172838,0.0448924213934966,-0.9629450105645242,-0.32689896446458533
-0.6869284792115413,-1.076024840422067,-0.389096276991227,-0.14817194390398666,-0.7290360910731997,0.8840019674153399,-0.9911032397436582,-1.453961869413745,-0.640518940847883,0.11932953698296941,-0.9400219994887422,-0.35709114533755115
-0.678361215979159,-1.0747071561286234,-0.39634590287284754,-0.1371966536687488,-0.7317155359354828,0.8765342233305082,-0.8460460511487851,-1.150927549306314,-0.49543236927190526,0.22103906193440756,-0.8765342233305082,-0.3582357062840022
-0.6386570914155678,-1.0423720508665348,-0.4037149597246912,-0.1133582904042025,-0.7215827158797105,0.8430887683612893,-0.7157542350091263,-0.8733603030252225,-0.35143671801903864,0.33445402235757626,-0.7911071432230216,-0.337747949933518
-0.6011279656833325,-0.9988854901356301,-0.39775753081328974,-0.09809248381185383,-0.6999929548473217,0.8050062800112605,-0.6138425494059964,-0.653580699600262,-0.21764671953055634,0.4439564737595316,-0.7074464095166242,-0.306271370871755
-0.5691833450407351,-0.9521753131584664,-0.3829920217010862,-0.08922845041985464,-0.665937456259571,0.7633052721029544,-0.5412621610833586,-0.4929135371842916,-0.10146686797836721,0.5397702075368509,-0.6315589265853844,-0.2701310171817872
-0.5411645902678729,-0.9070223209589974,-0.3658577679677414,-0.0838423989465046,-0.6326290695364251,0.7240934369751267,-0.4878103448647829,-0.381101816781986,-0.015244073277024468,0.6173849834455636,-0.571652725172979,-0.23628312938696067
-0.5323788616592534,-0.869913424202174,-0.3375345288143333,-0.09336853719603436,-0.6032988571506117,0.7035048640478383,-0.45118462692550815,-0.317416777174895,0.039030923093726744,0.6658112508028493,-0.5356297070904165,-0.21254501826726527
-0.537903077657064,-0.84741891123912,-0.30951582051875737,-0.11194455608393095,-0.5768945380712882,0.6981019682149958,-0.42329920633520896,-0.2851504489392488,0.07713336789929195,0.6962956734562571,-0.5075203291281194,-0.19526502108432817
-0.54255907081154,-0.8338271467111649,-0.29126806487593965,-0.1264416849432752,-0.5586366743675946,0.6903678575026226,-0.4069565071117891,-0.2698031034340019,0.09504268331705924,0.7113214802066801,-0.49292027865586846,-0.1907766858526128
-0.5487866146749952,-0.823179977927418,-0.2743933073374976,-0.1371966536687488,-0.5487866146749952,0.6859833149395151,-0.4039679645565868,-0.2667712829303753,0.09908647571821189,0.7164714125680044,-0.49543236927190526,-0.190550908390993
-0.5599171302072138,-0.8160252883931257,-0.2561081537175004,-0.1487129724157948,-0.5372283773931705,0.6913719256361173,-0.3977589234903174,-0.26536566391427185,0.10609275665078949,0.7227157834137257,-0.49507712334774245,-0.18351620772568494
-0.5690825370189789,-0.8140349306501833,-0.24495242802210523,-0.15799367652166196,-0.5267897018321553,0.6938129251252763,-0.39383378543488756,-0.2690549715675412,0.10404719516647563,0.7213019594096479,-0.4976116015901336,-0.18609634753049317
-0.5712953496696658,-0.8152636690030548,-0.24396833136580118,-0.15990588127509525,-0.5258791857515289,0.6928483773102536,-0.39653374873500896,-0.27456819733096427,0.09853580388448788,0.7139410409294451,-0.5038577309992978,-0.19090547438412048
-0.571652725172979,-0.815557878967062,-0.24390517243239146,-0.16006275484757843,-0.5259205414536282,0.6936053393466374,-0.39634590287284754,-0.2743933073374976,0.09908647571821189,0.708849388160882,-0.5030543936790275,-0.190550908390993
-0.571733480041239,-0.8142144625065678,-0.24248100254172286,-0.1609296179983023,-0.5239530092418158,0.6925317634179334,-0.39016557002022495,-0.26857898293488386,0.09844730437086087,0.7067004300728441,-0.5018640456153184,-0.19660285680674236
-0.5679228311597618,-0.8160675906096002,-0.2481447806484548,-0.15571675698211213,-0.5304961466506265,0.6942615064597382,-0.386153360021188,-0.2614058305492017,0.10354715907396886,0.7139412093915689,-0.5032163570911782,-0.195738324336153
-0.5619803443154199,-0.8127434983713022,-0.2507631618307269,-0.15251533822023042,-0.5319016070823003,0.6907865773074873,-0.3904578392917335,-0.2583701438824045,0.10620713751855759,0.7144604155110285,-0.5019809082683842,-0.18867433992310376
-0.5640307007658567,-0.8079359291131736,-0.24390517243239146,-0.16006275484757843,-0.5259205414536282,0.6859833149395151,-0.39634590287284754,-0.25914923988494454,0.09908647571821189,0.708849388160882,-0.5030543936790275,-0.190550908390993
-0.5656523277519994,-0.8077888372440627,-0.24213643727841522,-0.16237289996939241,-0.52556126834682,0.6864950699172281,-0.39576482710469085,-0.2539913421073554,0.10282338466819213,0.7139983466381641,-0.5036273439691512,-0.19114902336392084
-0.557567938426025,-0.8034406120330895,-0.24587266306741726,-0.15397532196942976,-0.5221813921928288,0.680296939752995,-0.39878371262466306,-0.24637481715091664,0.11287028534488502,0.7161835745181626,-0.49870791688078986,-0.18953617808484835
-0.5577804969684476,-0.7989410452197818,-0.24116056908942135,-0.1538457659975028,-0.51681583546818,0.6791405899151401,-0.4058898074201791,-0.2432293253285783,0.11377330736966973,0.7171997123983243,-0.4941492857016477,-0.19088197807681612
-0.5640307007658567,-0.8003138301528174,-0.23628312938696067,-0.16006275484757843,-0.5182984797698891,0.6859833149395151,-0.411589988963709,-0.24390517243239146,0.11433055248991919,0.7240934369751267,-0.49543236927190526,-0.190550908390993
-0.5579977539414753,-0.7946231764029555,-0.23662541861123124,-0.16003529379306172,-0.5131823440110276,0.6801515879124396,-0.4124775588707996,-0.23950326779874848,0.12010572860547003,0.7234245891664384,-0.4909892122190296,-0.18996102558321956
-0.5552803726554163,-0.7896075157056932,-0.2343271477368278,-0.16070439272241127,-0.5070499787212277,0.676720203969525,-0.4089895996535444,-0.2296667057787596,0.12295960129821192,0.7264845235088057,-0.4808557416054551,-0.19129240138943998
-0.5549408888626647,-0.7936196640697204,-0.23867877065121645,-0.15818893612587048,-0.513238708944839,0.6770652672045508,-0.41345793856228263,-0.229597071957022,0.12184200675285645,0.7328246396591342,-0.4809049411238141,-0.18891837369475484
-0.5487866146749952,-0.7926918057456951,-0.24390517243239146,-0.15244073044045608,-0.5182984797698891,0.6707391915720368,-0.411589988963709,-0.22866110497983838,0.12957461994247227,0.7393375603426051,-0.4801883204576606,-0.1829288839838707
-0.5480148415272534,-0.7852829332308143,-0.2372680584511569,-0.1526440247951888,-0.512241616374038,0.6695113632274716,-0.40169617307288075,-0.22045455517188262,0.13790974821385835,0.7465648719256562,-0.47207050756120106,-0.1817622457502247
-0.5460662705920044,-0.7848541006015908,-0.23878779286806442,-0.1488163534669938,-0.5089221737699294,0.6685856447979377,-0.4141121778334319,-0.22645590444475439,0.13177592501039923,0.7414375224270062,-0.476905092524984,-0.18436165505638732
-0.5380995008529952,-0.7828141732543826,-0.24471467017284174,-0.1438977767470582,-0.5108333913252687,0.6592250312960035,-0.41572368694705425,-0.22552492503236435,0.13102380338824637,0.7401509314458271,-0.4783787338945966,-0.18077989242573717
-0.5335425658607506,-0.7774476823782167,-0.24390517243239146,-0.14481869671417955,-0.5106764180861498,0.6554951427577921,-0.4039679645565868,-0.21341701888897685,0.1371966536687488,0.7469595847497275,-0.47256625877392133,-0.17530684093843993
-0.5278642474130057,-0.776936369490381,-0.2490721922743252,-0.13983429849145038,-0.5100088173888391,0.6559322627959395,-0.41578541220519805,-0.21879331842133445,0.13133393717209485,0.740419257682174,-0.4785878343911216,-0.17512726855025662
-0.5209483593815957,-0.7737396454453794,-0.25279128921230093,-0.13241810894464384,-0.510463412256255,0.6508876063306537,-0.41398683780678064,-0.21697807527956078,0.13106738427179745,0.7408162072926683,-0.47465841866588304,-0.17284019578213689
-0.5170248576273427,-0.7678373655359476,-0.25081243295474764,-0.1284923448292404,-0.5101724064248239,0.6466716553496421,-0.40180837100704947,-0.2008054451183414,0.139174761502668,0.7476807944365824,-0.46132737603112595,-0.1646887502788355
-0.5182984797698891,-0.7698257325243281,-0.25152719683951374,-0.12957461994247227,-0.5106764180861498,0.6478731183506697,-0.411589988963709,-0.19817295143642377,0.1371966536687488,0.7469595847497275,-0.4649442343667991,-0.16006275484757843
-0.5191208421934067,-0.7658547434793896,-0.2467339133082176,-0.13573348813413166,-0.5060745985273525,0.6428504071916465,-0.4130426735868293,-0.1992445692609391,0.13544729528016974,0.7514802350262761,-0.46698579242574345,-0.15997803426847873
-0.513473924659519,-0.7517751424335782,-0.23830121589989145,-0.1374819650813146,-0.494127697586222,0.6340817357026203,-0.4116286239249725,-0.19432033085306863,0.1415821628184877,0.7557523976597315,-0.4588326640393775,-0.15958559762194266
-0.5098588558936666,-0.7458488509153005,-0.23598994770860382,-0.13730812633312708,-0.48581033684953034,0.6322500033361007,-0.422748248364066,-0.18842422258120298,0.14526994145405459,0.7529766122580744,-0.45741555466810885,-0.16036577283834189
-0.5106764180861498,-0.7469595847497275,-0.23628312938696067,-0.1371966536687488,-0.4878103448647829,0.6326290695364251,-0.4268340377779537,-0.1829288839838707,0.14481869671417955,0.7545816091568497,-0.45732220995967676,-0.16006275484757843
-0.5052467589772333,-0.7410191444766484,-0.2357723540512804,-0.1312342372408989,-0.4886976958530643,0.6268548542001741,-0.4255074733093875,-0.17742043556786793,0.14447089117662326,0.7593466352920175,-0.45069600935508425,-0.15426433350946311
-0.49815502937170747,-0.7349248429230599,-0.2367697665686884,-0.12857766310094876,-0.48325697969574083,0.6202342392911244,-0.43004328803238234,-0.17047194266345395,0.14498856117146228,0.7660209698639546,-0.4491284594796299,-0.15074160356855007
-0.4934205101135063,-0.728702565619161,-0.23528203249355967,-0.12908287741699365,-0.4789482935466239,0.6151554121011614,-0.43592599327818005,-0.16718713583963224,0.14443602067429703,0.7697207594867896,-0.4482284931170921,-0.15327476287938183
-0.4878103448647829,-0.7240934369751267,-0.23628312938696067,-0.12195258621619573,-0.4801883204576606,0.6097629217618243,-0.4420781238688152,-0.1676847978930092,0.14481869671417955,0.7698257325243281,-0.4420781238688152,-0.15244073044045608
-0.4816438717171159,-0.7241943600023354,-0.24255055096997724,-0.1147400467774855,-0.48041828113072593,0.6035622374078582,-0.4480900584165508,-0.16269717743161455,0.1451561367253172,0.7693983630335208,-0.44076905546329315,-0.15079993211964762
-0.4758199589774017,-0.7194578631740531,-0.24363793646535475,-0.11465491875914773,-0.47872683278677775,0.5975940400728295,-0.4498404092540229,-0.15510336261242622,0.1436342505605771,0.7682954285721398,-0.44287002039647244,-0.157321730452619
-0.47101934163538417,-0.7154240385940218,-0.2444047155822893,-0.11359973052297466,-0.48074580007983697,0.5928977735626595,-0.4493074078787561,-0.1512205337333775,0.14628930013600216,0.7706467518225995,-0.4403830519849223,-0.1591446747030622
-0.47256625877392133,-0.7164714125680044,-0.24390517243239146,-0.11433055248991919,-0.4801883204576606,0.5945188729475798,-0.4497001482759375,-0.14481869671417955,0.15244073044045608,0.7774476823782167,-0.434456062185076,-0.15244073044045608
-0.4737061417130359,-0.7103020914801961,-0.23659595027818914,-0.11592747452092765,-0.4733370809738511,0.5955435732322786,-0.44422992910411496,-0.13300503644818118,0.15763771548360592,0.7823415595793198,-0.42307080475683356,-0.14680218757994326
-0.4673756270624032,-0.7071052040941774,-0.23972958803956224,-0.10869263292646648,-0.4722618337309012,0.5892242829523782,-0.43897698096934556,-0.1246502333691929,0.16483871824337412,0.7888839796450147,-0.4126502770081509,-0.13990403714141644
-0.46457019771879765,-0.7079419929071935,-0.24337181089701126,-0.10819644830810425,-0.4707988468280608,0.5863991742210419,-0.44438692235405364,-0.12041435932349076,0.16757737706441259,0.7923982048973598,-0.4117611213079239,-0.13704309649002414
-0.4649442343667991,-0.7012273637537597,-0.23628312938696067,-0.11433055248991919,-0.4649442343667991,0.5868968112638405,-0.4497001482759375,-0.11433055248991919,0.1676847978930092,0.7926918057456951,-0.411589988963709,-0.1371966536687488
-0.45879803039480854,-0.6939685950280711,-0.23517056793861085,-0.10873636255324387,-0.4643446991125989,0.5807345445900352,-0.44855920731702525,-0.10819000940247499,0.1734694986209936,0.7972049625369544,-0.4051677088904868,-0.1310473964483518
-0.45421640736080926,-0.6908861276809259,-0.2366697000335365,-0.10590389637004691,-0.46234039109876357,0.5758854631969266,-0.4532566007478947,-0.10338280214119604,0.17593538376418527,0.8037045171277117,-0.40309891338248444,-0.12917341366299423
-0.4453715870932163,-0.6814124669195878,-0.23604084446411253,-0.10572814088912127,-0.4541317733260247,0.5673998442293285,-0.4574426693077683,-0.09660796156961582,0.1750766333680454,0.809092463201279,-0.40296420743522476,-0.12836217129688282
-0.434456062185076,-0.6707391915720368,-0.23628312938696067,-0.09908647571821189,-0.4497001482759375,0.5564086763587344,-0.45732220995967676,-0.09146444199193535,0.17530684093843993,0.815557878967062,-0.39634590287284754,-0.12195258621619573
-0.4294121027400383,-0.6646056128927569,-0.23519351563301052,-0.09367341185910646,-0.44917384815497946,0.5509359159220943,-0.46248450386268947,-0.08680298403644073,0.1742856900772813,0.8204532319227451,-0.38968229905072993,-0.12135964164591688
-0.41777442086031435,-0.6579615754553452,-0.2401871540153561,-0.08608390714925544,-0.4495733059578978,0.5403079321080956,-0.4659063401744757,-0.07581769164264421,0.1791562040490027,0.8267544780059372,-0.3855232451654893,-0.12013791575193111
-0.41059127952909524,-0.6546836849672766,-0.24409243404436912,-0.08440751023148153,-0.44908065453114365,0.5316820226723205,-0.4639173904491408,-0.0661161466946673,0.1832598636082536,0.8307088408085249,-0.37813841383062285,-0.11103008498759986
-0.411589988963709,-0.6554951427577921,-0.24390517243239146,-0.0838423989465046,-0.4497001482759375,0.5335425658607506,-0.4649442343667991,-0.060976293108097865,0.1829288839838707,0.8308019277813067,-0.37347979237486373,-0.10670850944448843
-0.40036411789031695,-0.6497909815821608,-0.2494268446763122,-0.0714566215786587,-0.45021824621290685,0.5285398764782472,-0.46489099290039904,-0.05002146272055343,0.18835223266717332,0.8348079409608298,-0.3690077513262472,-0.10732105012102558
-0.3913145130932061,-0.6437050160434321,-0.25239050510855376,-0.06812832051428212,-0.4457774235185346,0.5210373863205636,-0.4640720606769955,-0.03972341917714579,0.19158058659759683,0.8427251549444136,-0.35684519745507437,-0.10334385183479305
-0.3850695335428778,-0.6361317551833495,-0.2510622373885468,-0.06631820609793868,-0.4400096898024006,0.5149331094167406,-0.46477018677613413,-0.037692945582225156,0.19047986581561013,0.8460776376234509,-0.3486782152996671,-0.09709158446652502
-0.3658577679677414,-0.6173849834455636,-0.25152719683951374,-0.05335425472224421,-0.434456062185076,0.49543236927190526,-0.4649442343667991,-0.030488146554048932,0.19817295143642377,0.8536680755559074,-0.34299165746975757,-0.09146444199193535
-0.3516325508674395,-0.5980658130264748,-0.24643323851316756,-0.05151013256301462,-0.4232018251566775,0.4748815875418277,-0.4639586548284895,-0.01307172392533425,0.2103759199153845,0.8702785000162407,-0.32570945438644616,-0.08063019031601275
-0.3487848428127974,-0.5877293525782029,-0.23894450062928965,-0.05539199051636558,-0.4108242787110248,0.470511084990421,-0.4691376776109138,-0.0010314857722230173,0.2152931527865946,0.8822340643405635,-0.3131816462268576,-0.06974428998870462
-0.3374838093837076,-0.5722612330001258,-0.23477742821171255,-0.05145487838566499,-0.3999937792535708,0.4580927367870196,-0.48583803070129783,0.00015259749868812538,0.21186970726354618,0.8836313152071913,-0.311942500640181,-0.06876527183570316
-0.32012550969515685,-0.5487866146749952,-0.22866110497983838,-0.04573222099596767,-0.38872384118910835,0.434456062185076,-0.49543236927190526,0.007622036638512234,0.21341701888897685,0.8917782721447527,-0.30488146088091217,-0.060976293108097865
-0.30837150448419315,-0.5301691909104418,-0.22179766423535086,-0.039880441906315775,-0.37706754818069904,0.4219748682935385,-0.4931695243789419,0.020645221469983127,0.22015037651304542,0.9039216092695757,-0.29279511420242854,-0.042229196266240394
-0.2948118980622184,-0.5154317842127139,-0.22061989140299954,-0.03495797952308471,-0.36515716119640795,0.40936073949082796,-0.5030660302425243,0.02515836962107778,0.21999442304307937,0.9087157955457399,-0.282697366249921,-0.034460359211435546
-0.27518012890985055,-0.4957787555809482,-0.2205986394411502,-0.027243321735080334,-0.3550986200090009,0.3894598667940405,-0.5116990620354399,0.035120448434202436,0.22287278778346536,0.9181158795498108,-0.2694706603613505,-0.026672996884008787
-0.25914923988494454,-0.4801883204576606,-0.2210390619344076,-0.015244073277024466,-0.35061368187687986,0.37347979237486373,-0.5182984797698891,0.04573222099596767,0.22866110497983838,0.9298884687335982,-0.25914923988494454,-0.015244073277024468
-0.24312057432147063,-0.4693263048544389,-0.22620572520197435,-0.0039009867905056214,-0.34539234517559436,0.3564377474192682,-0.5362625303560196,0.044570512682085665,0.22774158552643325,0.9334387485198838,-0.2494944408825962,-0.011003910337975905
-0.22047685668704714,-0.4528147640663919,-0.23233790647589073,0.007895339399766246,-0.33740140220256887,0.3387153008493926,-0.5439012622966212,0.05335181497608767,0.23284019213286225,0.9480349440815437,-0.2300466015278377,0.004091293630116765
-0.19927707906119996,-0.4373443036127029,-0.23806723134684546,0.018555994778100007,-0.33511618803091214,0.32162268279819,-0.5535130812047994,0.062255457590800506,0.23596929180159298,0.9629455989767437,-0.21902903484522984,0.018087665184937696
-0.1829288839838707,-0.4268340377779537,-0.24390517243239146,0.030488146554048932,-0.3353695957860184,0.30488146088091217,-0.571652725172979,0.060976293108097865,0.23628312938696067,0.9679985907692097,-0.21341701888897685,0.022866110497983837
-0.16117962703822558,-0.4100984372955281,-0.24891878344337376,0.04774067075187095,-0.32959340177505747,0.288432335916316,-0.5757986866066379,0.06715650439173959,0.24822602919655032,0.9784728625962007,-0.19523456159414027,0.039856786262306265
-0.1352323551424241,-0.39152816040888916,-0.2562957796505328,0.06199342368757,-0.3239807618341587,0.26640457834787573,-0.5923880713261507,0.06629706480888156,0.2506402044177798,0.9872099501166531,-0.18621810337846298,0.05167375890680881
-0.11636530765482023,-0.37526155592422566,-0.25889626889523115,0.07189958703123922,-0.31664434845403927,0.2447959100569056,-0.6151511002645275,0.05970813761412234,0.24050050115325097,0.9919243071226445,-0.17846529552569307,0.05528611061922872
-0.09908647571821189,-0.3582357062840022,-0.25914923988494454,0.0838423989465046,-0.30488146088091217,0.22866110497983838,-0.625006970576069,0.060976293108097865,0.23628312938696067,0.9984868375041666,-0.16006275484757843,0.0685983268343744
-0.07592589535777791,-0.3408783360705952,-0.26495244613022784,0.09547657761192033,-0.29791712158568595,0.21132576514488163,-0.6412461881037319,0.05621305774213597,0.23554436682939578,1.0022274358957415,-0.1483074404947946,0.08072752012814097
-0.05613069480729764,-0.3231087230624803,-0.2669780557562073,0.10623230410812536,-0.2943633354617069,0.19452903096016017,-0.6559663289953298,0.04892295139144943,0.23760480030510064,1.0139891593926447,-0.13584255393464484,0.09070665473665027
-0.040180292320154895,-0.3075521845104082,-0.2673718992746592,0.11840287284967779,-0.28646375077784175,0.17630616869890467,-0.6666116384891847,0.04393456897365884,0.2338013201963049,1.0212742747636538,-0.1281135968905085,0.10318123356600051
-0.022866110497983837,-0.2972594364737899,-0.2743933073374976,0.12957461994247227,-0.28201535038292835,0.16006275484757843,-0.678361215979159,0.03811018261011402,0.22866110497983838,1.0213528361722997,-0.12195258621619573,0.11433055248991919
-0.00578611644845995,-0.28599285636316846,-0.28020673430183385,0.14044693173484832,-0.28237372458027343,0.1491452598058689,-0.6824807262110979,0.03325370553458126,0.22998784058874583,1.0317341865873007,-0.10307939535239558,0.1259538645890503
0.012121781001867407,-0.27336683540197837,-0.2854886193456289,0.15337482261674232,-0.278297125078188,0.13303734885833615,-0.6963386748193985,0.022779470824237313,0.2207362296797187,1.0386093651656427,-0.09799681443198544,0.1345846544592343
0.027430486984142022,-0.26314445757506805,-0.2905749451415111,0.16224132229152918,-0.27229923789855626,0.1173247633384805,-0.7120590920266751,0.012743102208023955,0.2120163987294349,1.0343626414570823,-0.09664138219463178,0.13836831705201738
0.03811018261011402,-0.25152719683951374,-0.2896373934283591,0.1676847978930092,-0.2667712829303753,0.10670850944448843,-0.7164714125680044,0.007622036638512234,0.21341701888897685,1.0365969595397782,-0.0838423989465046,0.14481869671417955
0.04956874767074801,-0.23873041295912042,-0.28829917502544555,0.17372746029707506,-0.25990033466472634,0.09425752376093909,-0.7262776743845394,-0.003043149577668299,0.20307453504253575,1.0374319451648968,-0.0827505137269753,0.15161682049317118
0.060934524195005654,-0.2321772339473463,-0.29311175962067776,0.17787307851659398,-0.25880768657912157,0.08766816155682697,-0.7398542423185681,-0.01579935171001774,0.19150318382446793,1.0310813256779519,-0.08151271769048776,0.15215442477576166
0.07287371100192072,-0.2257887795882766,-0.29866249884346574,0.1866832735589212,-0.258234914155998,0.08009749540962846,-0.7492404218145353,-0.026507663154895965,0.1900090087600385,1.0278056362752124,-0.07431134155094304,0.15365854856345113
0.0838423989465046,-0.2210390619344076,-0.30488146088091217,0.19817295143642377,-0.25914923988494454,0.0685983268343744,-0.7545816091568497,-0.03811018261011403,0.1829288839838707,1.0289749351326558,-0.07622036522022804,0.16006275484757843
0.09012152161604857,-0.2257561611973407,-0.31587764973693144,0.20376533927165008,-0.2700157448790898,0.06702851635710178,-0.7538779899700853,-0.044790402715182684,0.17499623055525082,1.0280944661527083,-0.07684161238043768,0.16118625813027612
0.09351762287840946,-0.2321568973223566,-0.32567449459469733,0.21069342005257657,-0.27926844379850946,0.07132564704368394,-0.7552123737582981,-0.04789840793736389,0.1790488055721403,1.0288888309287674,-0.07498925933882597,0.1586526780357841
0.08861079473588346,-0.23873849201020264,-0.32734929668957996,0.21254417696427563,-0.2830684849225572,0.07951099390834149,-0.752018479293767,-0.05723341761393749,0.18278145541377888,1.026108762004156,-0.07722541497466834,0.1606577129114954
0.07622036522022804,-0.25152719683951374,-0.32774757137889604,0.2057949944818545,-0.2896373934283591,0.09146444199193535,-0.7469595847497275,-0.0685983268343744,0.17530684093843993,1.0137308863184111,-0.0838423989465046,0.15244073044045608
0.06993367913938929,-0.2628588966710601,-0.332792564520647,0.20514740675451223,-0.29500845323001396,0.09684718413116127,-0.747613007913508,-0.07431151526508789,0.16821747714338472,1.0005586885912447,-0.09469780724963453,0.1338273486274805
0.06399402623917685,-0.27548662938833746,-0.33948064729318467,0.20421583368073343,-0.30297177065838277,0.10710646108683892,-0.7397468061987309,-0.08216209561191529,0.16583216930104255,0.991745356656294,-0.10844898910669665,0.12384213627203719
0.046337891761852254,-0.29730429833497835,-0.3436422098913499,0.1941462582335608,-0.31701391487565167,0.13000664602455209,-0.727728363511897,-0.09625883459914347,0.1554195143506094,0.9764760684517546,-0.12974172799315634,0.10669955740155282
0.022866110497983833,-0.32012550969515685,-0.34299165746975757,0.1829288839838707,-0.32774757137889604,0.15244073044045608,-0.7164714125680044,-0.10670850944448843,0.14481869671417955,0.9603766409153212,-0.15244073044045608,0.0838423989465046
0.0008002455227932035,-0.3410613686845957,-0.3418616343767245,0.17200030775406674,-0.33737227044341317,0.1735367078538996,-0.6937173906884897,-0.11214677738283205,0.14463967910432107,0.9487332911974798,-0.1688319580496836,0.07327439015547743
-0.027807323873179676,-0.37232422921330416,-0.3445169097841053,0.1571787650185777,-0.35504648229179525,0.20450910415892035,-0.6706304230014305,-0.11856820411034902,0.141832384893268,0.9331803758842712,-0.18994629125299262,0.053796762189558034
-0.06639398669811886,-0.4067403529391444,-0.34034637933361234,0.1383875128420211,-0.36932785230007625,0.23954146054526487,-0.6457616824436196,-0.12310684002148711,0.1355420123860022,0.9167228462644876,-0.21292903153164988,0.03279180998213142
-0.09908647571821189,-0.434456062185076,-0.3353695957860184,0.12195258621619573,-0.381101816781986,0.2667712829303753,-0.6173849834455636,-0.12957461994247227,0.1371966536687488,0.9070223209589974,-0.23628312938696067,0.022866110497983837
-0.12566721685425147,-0.4621596435241492,-0.33649241840575855,0.10602117328550549,-0.39875153668654306,0.29343927424409216,-0.5945050181518289,-0.14134519431135545,0.1384740158891779,0.8907520632483469,-0.26077454423191754,0.001296083892626349
-0.1640199995362246,-0.49173214377772456,-0.327712140734855,0.08306501526186798,-0.4087426638286079,0.3285570617141173,-0.5674562067428379,-0.1488047120879153,0.13282501781494607,0.8695783610342922,-0.2736468520464076,-0.021561813400185974
-0.20078772123779792,-0.5189184661517308,-0.318130741997527,0.06320888846754276,-0.4135898773288065,0.35924170113847653,-0.5400801240386113,-0.1550806699827067,0.12874396386779766,0.8574125333695728,-0.2883035982378878,-0.03492574484132781
-0.2210390619344076,-0.5411645902678729,-0.32012550969515685,0.05335425472224421,-0.4268340377779537,0.381101816781986,-0.5182984797698891,-0.1676847978930092,0.12957461994247227,0.8460460511487851,-0.3125034852880345,-0.05335425472224421
-0.2467966639158202,-0.5624111503825799,-0.31561447845611884,0.03798201299770583,-0.43890673685787635,0.40818487923924685,-0.4892845749793918,-0.1793639957378474,0.13009340567226085,0.8274653720994828,-0.32950532814058464,-0.071443377390798
-0.2823783672925879,-0.5889445487776177,-0.30656619041063804,0.01606240609037523,-0.4460706929794338,0.4378101086306108,-0.46544986404009103,-0.189899255984045,0.12660529463910083,0.815043342830376,-0.3493801202962538,-0.08607805502278695
-0.3010056380020008,-0.6055733807489764,-0.3045677327620896,0.005580136787140319,-0.4507626709930496,0.4528645299818979,-0.4526522988971948,-0.2021041187153937,0.11924539932297204,0.8018558255582673,-0.3726942300098718,-0.10614608797516756
-0.3125034852880345,-0.6173849834455636,-0.30488146088091217,-4.1280767099370897e-19,-0.45732220995967676,0.4649442343667991,-0.434456062185076,-0.21341701888897685,0.11433055248991919,0.7850697813385727,-0.38872384118910835,-0.12195258621619573
-0.3353209285290174,-0.640079717220057,-0.30475877093374826,-0.011692462809337908,-0.4686095413503578,0.48738658627894993,-0.4151618629761662,-0.22446525166593692,0.11445786535986067,0.7732272048892014,-0.40515921838607866,-0.13189943655447858
-0.35439301120754196,-0.6567748419216406,-0.30238186381424603,-0.021582172064259397,-0.47696810876594714,0.5075496390649767,-0.4048741518829346,-0.2363202735516964,0.11158221959158983,0.7581577875459268,-0.42288351822621706,-0.15002685375885125
-0.37279044019205565,-0.6666449479998107,-0.293854533438189,-0.03666870874903834,-0.4813462536057595,0.5234650369058076,-0.3897751683729733,-0.24734628444107093,0.1041032176750965,0.7413821020029949,-0.4400715470497924,-0.16243276359272157
-0.39634590287284754,-0.6859833149395151,-0.2896373934283591,-0.05335425472224421,-0.4878103448647829,0.5411645902678729,-0.37347979237486373,-0.25914923988494454,0.09908647571821189,0.7317155359354828,-0.45732220995967676,-0.1676847978930092
-0.41335764118125573,-0.7038725764286193,-0.29051493672555573,-0.05892430199096631,-0.49337706616087174,0.5575605178836229,-0.3673985242218277,-0.2707535798648364,0.09419426558982578,0.7199646659709141,-0.4686643675441009,-0.18429974858052145
-0.4314163900520316,-0.7159807041903443,-0.284564356828422,-0.0684937340602043,-0.49850890500084005,0.5763279670075203,-0.3585829824707493,-0.2809907954063712,0.0839954802729058,0.7081455686672927,-0.48185226525238134,-0.19928388784610718
-0.4448087365239129,-0.7273736704010196,-0.2825649584126113,-0.07800719724721018,-0.5047692612942192,0.5895535355638157,-0.3470911614665052,-0.29412070441437044,0.07293198741185343,0.6963329096144576,-0.5014905095976839,-0.20948290435579972
-0.4497001482759375,-0.7393375603426051,-0.2896373934283591,-0.07622036522022804,-0.5106764180861498,0.5945188729475798,-0.34299165746975757,-0.30488146088091217,0.0685983268343744,0.6859833149395151,-0.5106764180861498,-0.2210390619344076
-0.4608848020026057,-0.7507617901805647,-0.2898769863273892,-0.0806778166896002,-0.5158461934160243,0.6047898543346073,-0.33742187203343943,-0.30962712380747504,0.0688959757590263,0.6846530661844886,-0.5089180326845089,-0.22176766775833212
-0.4672997131737591,-0.7585203465698614,-0.2912206846196159,-0.08720540589127365,-0.5218571915556133,0.6156864769550838,-0.33089457923556653,-0.3200047652538571,0.06579681461022054,0.6840999998149988,-0.5173665179120862,-0.2223169711712249
-0.4632179131277401,-0.7632324358521219,-0.3000145361524821,-0.08070806874559569,-0.5272224354859747,0.6164365270617846,-0.32553384656877654,-0.3300392261832505,0.058303882084479765,0.673304520497382,-0.5283241215248786,-0.2319109951280411
-0.4649442343667991,-0.7698257325243281,-0.30488146088091217,-0.07622036522022804,-0.5335425658607506,0.6173849834455636,-0.32012550969515685,-0.3353695957860184,0.05335425472224421,0.6631171671649144,-0.5335425658607506,-0.23628312938696067
-0.4708335135991394,-0.7755315973298831,-0.3046981009949328,-0.08207870147893423,-0.5395128029459052,0.6229194520519671,-0.3148777885438436,-0.341666584982599,0.0530716010551879,0.6616652891907644,-0.539551643492705,-0.23534340912552026
-0.4731539543556478,-0.7776981658121132,-0.3045442603196135,-0.0846764775241487,-0.5412848170911623,0.6255371892076758,-0.3047948804916501,-0.34246244733364695,0.05340887535709819,0.6635982981331014,-0.5405958065232601,-0.23971096522060287
-0.47155757396302533,-0.7762239482267869,-0.3046664083069559,-0.08359787037361488,-0.5405535186726025,0.6239489832267245,-0.29401831462009803,-0.34429984924171425,0.05333548005635611,0.66105254504575,-0.5422027244131523,-0.24486271766054463
-0.47256625877392133,-0.7774476823782167,-0.30488146088091217,-0.0838423989465046,-0.5411645902678729,0.625006970576069,-0.2896373934283591,-0.35061368187687986,0.05335425472224421,0.6554951427577921,-0.5487866146749952,-0.24390517243239146
-0.47812669689627135,-0.7824578917547637,-0.3043312057557563,-0.08347956493055855,-0.5405565291541757,0.6297919125716489,-0.28429845868099124,-0.3502985662951802,0.04856803695309912,0.6492089662936871,-0.5484977176739846,-0.2427274918916297
-0.48091668700855544,-0.7879837548748402,-0.30706706042357634,-0.08477719492069558,-0.5430120008955626,0.6366219886073053,-0.2769427377670239,-0.35336988207881503,0.040234827713260216,0.643422257397068,-0.5508284494913916,-0.24721593398223426
-0.47919846562620116,-0.7943477006783315,-0.3151492381556741,-0.08199653809699453,-0.5513122592258768,0.6403944689582108,-0.2736696691246609,-0.3592500837681285,0.03825231950579787,0.6377533690173204,-0.5583291195366799,-0.25325366045148606
-0.4801883204576606,-0.8003138301528174,-0.32012550969515685,-0.07622036522022804,-0.5564086763587344,0.6402510193903137,-0.2743933073374976,-0.3582357062840022,0.03811018261011402,0.6326290695364251,-0.5640307007658567,-0.25914923988494454
-0.4808242466488721,-0.8001193762194745,-0.31929512881903555,-0.07628162778111588,-0.5554207531171185,0.6395710016034353,-0.2701061170785236,-0.3575663386377579,0.03210974519264855,0.6310267162652925,-0.5697900427789584,-0.26511356720366275
-0.4758575283746052,-0.7992464548813956,-0.32338892630145416,-0.07311637602484874,-0.5593448752048501,0.6398386067453855,-0.2579545147151296,-0.3582200245285145,0.02958766230810738,0.6339225752869381,-0.571776502251026,-0.2675264440982199
-0.4712682400951227,-0.799815395184153,-0.32854715611101826,-0.06716122280100623,-0.5647615938305882,0.6396423856297117,-0.2491825250523187,-0.3579254475844595,0.030652934083818525,0.629664185742884,-0.5711485236654947,-0.2659425128611749
-0.47256625877392133,-0.8003138301528174,-0.32774757137889604,-0.0685983268343744,-0.5640307007658567,0.6402510193903137,-0.24390517243239146,-0.3582357062840022,0.030488146554048932,0.625006970576069,-0.571652725172979,-0.2667712829303753
-0.4727668800213318,-0.7998629362310874,-0.3270960528369182,-0.06938719890327531,-0.5629666154857668,0.6399733022003598,-0.2372662918704518,-0.35796774980755663,0.03076684046142189,0.6253280045757093,-0.5707763296547622,-0.27217891964251434
-0.47109843850409777,-0.7990059703143969,-0.3279075399126459,-0.06711967860410524,-0.5644436075083916,0.6390993887501741,-0.23391651988374632,-0.356206400489727,0.029571460665413617,0.6219305874780339,-0.5722202887800709,-0.2760019888924034
-0.47364811583412647,-0.8008486872420706,-0.32720055920835056,-0.07036974327399874,-0.5627439427164077,0.640845933862394,-0.2245863813529686,-0.3465431599643265,0.03151324463192827,0.627960368462217,-0.5699229114188954,-0.27277288744375083
-0.4801883204576606,-0.8079359291131736,-0.32774757137889604,-0.07622036522022804,-0.5640307007658567,0.6478731183506697,-0.2210390619344076,-0.34299165746975757,0.030488146554048932,0.6326290695364251,-0.571652725172979,-0.2743933073374976
-0.4856006413244811,-0.8136980509378865,-0.32809742545684634,-0.07652749455501105,-0.5700908753013169,0.6539927261552723,-0.22904686997473858,-0.35010334769825097,0.023093005862467403,0.6190216883525804,-0.5790630585725471,-0.28131434596731725
-0.4912828727973705,-0.8157754375087369,-0.3244926107639262,-0.0777815751667813,-0.5692988727742893,0.6551956179304845,-0.22023961743113843,-0.3459145346948692,0.026859531292736945,0.6200819785379262,-0.5737193237236192,-0.2803962800913624
-0.49623989585502726,-0.8136479453061097,-0.3174080176616457,-0.08735732580852369,-0.5605785530633861,0.65504967969299,-0.21347930785313907,-0.343809578951926,0.0298545107070705,0.6236377833698006,-0.5728334188795179,-0.2843933416471063
-0.49543236927190526,-0.8079359291131736,-0.3125034852880345,-0.09146444199193535,-0.5564086763587344,0.6554951427577921,-0.2210390619344076,-0.35061368187687986,0.022866110497983837,0.6173849834455636,-0.5792747868567182,-0.2896373934283591
-0.4890885024657129,-0.8012444575082593,-0.31215593692206206,-0.08491293725508499,-0.5563373210723048,0.6501481334212168,-0.21539662680852134,-0.34505757685193567,0.022302190649502295,0.623025874321932,-0.5723944673862555,-0.28265132067312737
-0.48609231208493753,-0.7963274291337292,-0.31023512813863113,-0.08601411807789365,-0.5531680523000883,0.642053795634756,-0.21478474028156658,-0.34170844575158976,0.022560201329401803,0.621333786078512,-0.5743934845762578,-0.28531795078637057
-0.48825954782422715,-0.7895513561620229,-0.30129180358126384,-0.09327852155769428,-0.5457047136516566,0.6396770422561217,-0.2226302545885867,-0.34187547455263445,0.024292506391507776,0.6171527501291392,-0.5784689456203846,-0.2889625522280339
-0.4878103448647829,-0.7850697813385727,-0.2972594364737899,-0.09146444199193535,-0.5411645902678729,0.6402510193903137,-0.2210390619344076,-0.3353695957860184,0.030488146554048932,0.625006970576069,-0.571652725172979,-0.28201535038292835
-0.4815373630734204,-0.7845321491939407,-0.3029947887121756,-0.08504688449311189,-0.5407485996157078,0.6344440083101015,-0.22075387339480138,-0.3343448520995149,0.030478259176539155,0.6245357326327796,-0.5711933785881302,-0.281690156897894
-0.47843219256905795,-0.7835665661498216,-0.3051343704138274,-0.08297985665724088,-0.5401326512649276,0.6296397517211401,-0.2181257675593879,-0.33542477066786486,0.0333482289934622,0.6280409568968924,-0.5674907668952935,-0.2784230358321221
-0.48064253884036073,-0.7859733076473505,-0.3053307711866871,-0.0843103213190357,-0.5419125842920246,0.6345713194139381,-0.2116688039278073,-0.33527628391727293,0.039488991424336456,0.6317474702174743,-0.563860219830284,-0.27404656014414697
-0.4801883204576606,-0.7926918057456951,-0.3125034852880345,-0.0838423989465046,-0.5487866146749952,0.6402510193903137,-0.21341701888897685,-0.3353695957860184,0.03811018261011402,0.625006970576069,-0.571652725172979,-0.28201535038292835
-0.4739879920423806,-0.7928117449120141,-0.3188237265733621,-0.07820622472490019,-0.5545826027791224,0.6348167443135001,-0.21422616234673592,-0.329238980054031,0.03733057944403528,0.6286808017416248,-0.5674284265850857,-0.2836425422062638
-0.47050420323691167,-0.7911670229095877,-0.32066277044496405,-0.07414527429455928,-0.5572011235572892,0.6292239481664529,-0.21179862340068828,-0.3266435614403347,0.03903780753426356,0.6352598143843675,-0.5592742703936339,-0.2791744655897139
-0.47391327654805077,-0.7925507343331162,-0.31863743318393006,-0.07824663165899531,-0.5543392839617388,0.6348651503152148,-0.2144416080355469,-0.326889914684591,0.03737196002508708,0.6299825716915862,-0.5673056660637733,-0.284426994166309
-0.4801883204576606,-0.7926918057456951,-0.3125034852880345,-0.0838423989465046,-0.5487866146749952,0.6402510193903137,-0.21341701888897685,-0.32012550969515685,0.03811018261011402,0.6326290695364251,-0.571652725172979,-0.2896373934283591
-0.48087169757418124,-0.7870840126307295,-0.3062123090717468,-0.08390900453539124,-0.5429818918315547,0.6343265015635324,-0.20620001864667464,-0.31767924487913424,0.03941504253199239,0.6400354019283528,-0.5641948265858188,-0.28868574872462444
-0.47792069436401596,-0.7791765450430955,-0.3012558850004695,-0.08580785430990528,-0.5358268343422705,0.6303068832074054,-0.20884085839751565,-0.3254398518993564,0.0333296227763956,0.6350434587286795,-0.5669498028371188,-0.29321553132970646
-0.48211979972403124,-0.7767707765994214,-0.29465106137809854,-0.09459183430073481,-0.5329140025615393,0.6331544377885977,-0.21351119900640717,-0.3262637806586227,0.031105620663486804,0.6330057547908412,-0.5711406742470809,-0.29773941012122934
-0.4878103448647829,-0.7774476823782167,-0.2896373934283591,-0.09908647571821189,-0.5335425658607506,0.6326290695364251,-0.2057949944818545,-0.32012550969515685,0.03811018261011402,0.6402510193903137,-0.5640307007658567,-0.2972594364737899
-0.48232079977597253,-0.7713444528944877,-0.2890236486827843,-0.09356820400259144,-0.5276585876753008,0.6262079506360879,-0.20301032097783317,-0.31932083315227366,0.03934451770226172,0.6399533908912669,-0.5619984681161673,-0.29757587449699424
-0.4774249739317964,-0.7671027702990241,-0.28967776527329847,-0.08944203266878352,-0.5234450749153288,0.6228917531719259,-0.2118375064702092,-0.32005801276208823,0.036356537680396254,0.6423212882719019,-0.5655846188144213,-0.2934866233741278
-0.481944339325736,-0.7711380312540512,-0.2891936887573368,-0.09334299124132765,-0.5273760350062603,0.6261870422338842,-0.21149833784415872,-0.31993385622470066,0.04002805960750636,0.648894668742767,-0.5613633411615726,-0.2883965586524579
-0.4878103448647829,-0.7774476823782167,-0.2896373934283591,-0.09908647571821189,-0.5335425658607506,0.6326290695364251,-0.2057949944818545,-0.32012550969515685,0.04573222099596767,0.6478731183506697,-0.5564086763587344,-0.2896373934283591
-0.488349336023284,-0.7779663900533231,-0.2896171227774056,-0.10004686032890356,-0.5343798935564863,0.6334544907650912,-0.21067766506773525,-0.3189881126892857,0.04635778115285865,0.6465576797900218,-0.5557331606463798,-0.28969974588079406
-0.48388080883602863,-0.7728213020917498,-0.28894050953742156,-0.09540303749922201,-0.5288678286805486,0.6279041877375989,-0.21529715383632025,-0.32371110753884247,0.04483308749270454,0.6484645085884523,-0.5557830901386872,-0.2892375862455124
-0.4784420266671027,-0.7681871176415371,-0.28974506359926033,-0.09013092745965837,-0.5247738619195671,0.6236806454731998,-0.21201576248592394,-0.328173488906527,0.04640704706851546,0.6457916606816401,-0.5567967796188449,-0.2893200834824992
-0.4801883204576606,-0.7698257325243281,-0.2896373934283591,-0.09146444199193535,-0.5259205414536282,0.625006970576069,-0.21341701888897685,-0.32774757137889604,0.04573222099596767,0.6402510193903137,-0.5640307007658567,-0.2896373934283591
-0.4815402682905317,-0.7700701212831531,-0.28852984166361856,-0.0929568220995162,-0.5254322505073522,0.6250498252367216,-0.21489164024148258,-0.3277598614784371,0.0442284783642646,0.6383492213796891,-0.5660112528161552,-0.2901903627736977
-0.47455729883471487,-0.7674624888665402,-0.29290515243495874,-0.08652199587222675,-0.5276388619484644,0.6235749964352608,-0.20819053744172245,-0.3263155968307118,0.05075832554897083,0.6439503654582296,-0.5571470742846917,-0.2856993079995582
-0.47258492690427195,-0.7713371835220817,-0.29875223208875284,-0.08387301407536046,-0.5361033242217533,0.6252142092972345,-0.2058062697898586,-0.3294126460926095,0.05236198660689557,0.6479454335381438,-0.5579851908108162,-0.28078461670276494
-0.47256625877392133,-0.7774476823782167,-0.30488146088091217,-0.0838423989465046,-0.5411645902678729,0.625006970576069,-0.2057949944818545,-0.3353695957860184,0.04573222099596767,0.6478731183506697,-0.5640307007658567,-0.28201535038292835
-0.4651473830570885,-0.7765320891995374,-0.3113847567906256,-0.07752961045912074,-0.540166714406569,0.6230830946931611,-0.19909089396409593,-0.33469572353599936,0.045129069446881546,0.6474905663054067,-0.5574648410873109,-0.28228967607389166
-0.46811628074688166,-0.7799357338965354,-0.3118194504852074,-0.0761354620254863,-0.54408468015272,0.6293908969244966,-0.2001531335046071,-0.33860060198765923,0.04590134509331944,0.6467868720699986,-0.5579989241905974,-0.28110161329115946
-0.4719097066997604,-0.7856792402607478,-0.31376948750661793,-0.07480687332734433,-0.5495361885392188,0.6312358811367265,-0.20802508188000757,-0.3434840014181776,0.045984280216025054,0.6480056922321711,-0.5651976098389534,-0.28224120692575727
-0.4649442343667991,-0.7850697813385727,-0.32012550969515685,-0.0685983268343744,-0.5487866146749952,0.625006970576069,-0.21341701888897685,-0.34299165746975757,0.04573222099596767,0.6478731183506697,-0.5640307007658567,-0.28201535038292835
-0.46358179459190546,-0.783863610823266,-0.3202817861817289,-0.06818703701322498,-0.5476041627019284,0.6238614078627494,-0.21944490327331823,-0.34790440795986693,0.03981642392836508,0.641264402376735,-0.5629982628799604,-0.2811453962720185
-0.46521999177881435,-0.7852172888909791,-0.3199972453867598,-0.06812120059450184,-0.5495837311298739,0.6247385898490139,-0.22124138358227147,-0.3523629975137998,0.037144778377937754,0.63900284979719,-0.5639388072853381,-0.2831390302374563
-0.46445722735793993,-0.7831579565862974,-0.31870071258212807,-0.07006230455917183,-0.5465392268278005,0.6246370293942998,-0.22162828040730959,-0.3489982578950771,0.03832453279384971,0.6397514895021919,-0.5634555862809628,-0.27970346327384066
-0.4649442343667991,-0.7774476823782167,-0.3125034852880345,-0.07622036522022804,-0.5411645902678729,0.625006970576069,-0.22866110497983838,-0.35061368187687986,0.03811018261011402,0.6402510193903137,-0.5640307007658567,-0.2743933073374976
-0.45922533326677034,-0.7704437170914559,-0.3112183728544548,-0.07166449797581044,-0.5402111130488149,0.618914778156346,-0.2346643363000157,-0.3568228418146333,0.0386806273767268,0.6407710318805065,-0.5630858785576437,-0.27911992244914025
-0.4549136084300048,-0.7685492589021291,-0.31363558762237614,-0.06526718469136109,-0.5412972859750985,0.6154172595583598,-0.23949667503155497,-0.3581470055327068,0.03461890614729234,0.6353911146337331,-0.5666499664640807,-0.2842858425387761
-0.4582245075942841,-0.7687684380510993,-0.31054391740635684,-0.07154652007257886,-0.5397163541515527,0.6169639072827459,-0.24517799142602312,-0.3581175626475691,0.02942048024094046,0.6318497121241852,-0.5726174450516313,-0.27942481108942707
-0.45732220995967676,-0.762203633563972,-0.30488146088091217,-0.07622036522022804,-0.5335425658607506,0.6097629217618243,-0.24390517243239146,-0.3582357062840022,0.030488146554048932,0.6326290695364251,-0.571652725172979,-0.2743933073374976
-0.4505045270236246,-0.7539755927329544,-0.30347107917606486,-0.07042659544466133,-0.5260169748663078,0.601024778871389,-0.2419166566039434,-0.35702517885659457,0.02638938578328725,0.6263275087001441,-0.5697784266961634,-0.27397108632240424
-0.44914598127197564,-0.7574398447200523,-0.30829385132537446,-0.06751839175094523,-0.5279891270229811,0.6064103974023312,-0.24912016441179072,-0.3618562465360815,0.016291694411161274,0.6236532195034646,-0.5755917377669596,-0.2741805369178009
-0.44831121508201144,-0.7623300075313313,-0.314018800947363,-0.06828570976999637,-0.5354269704933913,0.6081777818394128,-0.25001673640379773,-0.3661714569096898,0.017010165161882463,0.6238830350168,-0.5791172302537635,-0.27418563762321163
-0.4420781238688152,-0.762203633563972,-0.32012550969515685,-0.060976293108097865,-0.5411645902678729,0.6021408973547021,-0.24390517243239146,-0.3658577679677414,0.022866110497983837,0.6173849834455636,-0.5792747868567182,-0.2743933073374976
-0.44010304142322665,-0.7663893191551201,-0.32628623926496486,-0.05324256013270827,-0.5466980120514932,0.6060578597002255,-0.248488425982555,-0.3707461897034605,0.017896721815687307,0.6104587272475276,-0.5842782929779801,-0.2740406765510014
-0.44609183793140994,-0.7740504194620266,-0.3279585765372133,-0.05686479015978876,-0.5494889257129778,0.6142895315940501,-0.2537124235016697,-0.3753230627134785,0.012903920976898065,0.6081697350856599,-0.5881105653086196,-0.27440313606659134
-0.4498570422389935,-0.7772979887461593,-0.32744099542508004,-0.06180251723335273,-0.5476211893840776,0.6174894624501099,-0.2498044872715186,-0.3716739291762341,0.016746487772891363,0.6101445921203853,-0.5852786782503796,-0.27376782757248475
-0.4497001482759375,-0.7774476823782167,-0.32774757137889604,-0.060976293108097865,-0.5487866146749952,0.6173849834455636,-0.25152719683951374,-0.37347979237486373,0.015244073277024466,0.6097629217618243,-0.5868968112638405,-0.2743933073374976
-0.4538138095788339,-0.7765172066246642,-0.32270342741501307,-0.06521184458045887,-0.5495572409409453,0.6156779610498186,-0.2579601390163199,-0.38012935139597087,0.008445456187228029,0.6028552885246795,-0.59276829962536,-0.27979559865877535
-0.462880349969472,-0.777462814764289,-0.3145825138279844,-0.07473675595955641,-0.5440253248764958,0.6215031159653543,-0.2587678310030564,-0.3798772158902663,0.008094462721507757,0.6016500411522755,-0.5944688164132703,-0.28337107486434066
-0.4632795339844886,-0.7754039604167433,-0.31212444738410183,-0.07475596465608761,-0.5401586715176734,0.6237807146577461,-0.26004022499658297,-0.38275633437830614,0.006050917529653135,0.6002871495766606,-0.5939788072930375,-0.2806738549378664
-0.45732220995967676,-0.7698257325243281,-0.3125034852880345,-0.0685983268343744,-0.5411645902678729,0.6173849834455636,-0.2667712829303753,-0.38872384118910835,2.466904694628717e-19,0.5945188729475798,-0.5945188729475798,-0.28201535038292835
-0.45641714591567134,-0.7682500927761028,-0.3118329013117333,-0.06803606750052443,-0.5406235696442743,0.6160929796907584,-0.27252846784891094,-0.38780312625558455,-0.0004528625739306905,0.5935403900230738,-0.5938570766274016,-0.2881650448597417
-0.4572349582982254,-0.7703817445585875,-0.3131467603447618,-0.06886080459182944,-0.5411705520354373,0.6174009420772807,-0.2777239721567513,-0.3924136748115036,9.377307083369233e-05,0.5940741231912908,-0.5944791235759379,-0.28957417467125335
-0.45690189682561894,-0.7681060435395364,-0.3112040994181473,-0.06848083737680269,-0.5400033790909476,0.6167181829980899,-0.283774636165871,-0.39628265526929274,0.00027394141815729426,0.5942926230013669,-0.5933809204888238,-0.29025507888189667
-0.45732220995967676,-0.7698257325243281,-0.3125034852880345,-0.0685983268343744,-0.5411645902678729,0.6173849834455636,-0.2896373934283591,-0.39634590287284754,-3.533475556010688e-19,0.5945188729475798,-0.5945188729475798,-0.2972594364737899
-0.456703345502748,-0.7762161657442594,-0.3195128492006049,-0.06828228997254505,-0.5475291703234544,0.6167176244175425,-0.29550694950692563,-0.4026382793692335,-0.005839706507468554,0.5882913516745616,-0.600621272860923,-0.303596893489292
-0.4577546657141582,-0.7738137628598368,-0.3160591104858458,-0.06934846437610111,-0.545570307855328,0.617577291683236,-0.2981481374486589,-0.40082635860833044,-0.008735726293773501,0.5850377752172499,-0.5993312949260811,-0.3052297179920576
-0.45537899688149985,-0.7679477789272177,-0.3125687246619973,-0.0670166752099584,-0.5393595920898102,0.6153789267661537,-0.2962876595717939,-0.394963130144366,-0.007225063709841045,0.5869787579503651,-0.5921248271262114,-0.3042035705110121
-0.4497001482759375,-0.7698257325243281,-0.32012550969515685,-0.060976293108097865,-0.5411645902678729,0.6097629217618243,-0.2972594364737899,-0.39634590287284754,-0.007622036638512233,0.5868968112638405,-0.5945188729475798,-0.30488146088091217
-0.44879972006621316,-0.7698894188452621,-0.3210896254942531,-0.06017863898044895,-0.5414208066676908,0.6086680602924807,-0.3028788004355297,-0.3955105421388671,-0.007680473171533302,0.5861244004347113,-0.6005969726453799,-0.3102096812929093
-0.4496891422840763,-0.7683579112470261,-0.31866869343471077,-0.061677585918674886,-0.539920692063509,0.6097676870571987,-0.30618888104228414,-0.3997428891451842,-0.007817718462201318,0.5866253903824609,-0.6019779847501815,-0.3142547949664868
-0.4492088229232896,-0.7697344661544715,-0.32052556857540415,-0.06043757003497568,-0.5412251235848333,0.6089916419912984,-0.302976273952019,-0.4043013726807542,-0.007350383943287589,0.5861804766234888,-0.6015947351824884,-0.3101817723897071
-0.4497001482759375,-0.7698257325243281,-0.32012550969515685,-0.060976293108097865,-0.5411645902678729,0.6097629217618243,-0.2972594364737899,-0.4039679645565868,-0.007622036638512233,0.5868968112638405,-0.6021408973547021,-0.30488146088091217
-0.44928128000714085,-0.7686983560860288,-0.31941700382275057,-0.06149903496234375,-0.5402594869340388,0.6095698457202449,-0.2959773000439709,-0.4046382318463681,-0.008640812671278458,0.5867975571664783,-0.6016181092262638,-0.3043339880297423
-0.44956109061885263,-0.7702864579873516,-0.32072528586139515,-0.05970267414494884,-0.5417394107307512,0.6087954995007754,-0.2988396974687456,-0.39917625410023383,-0.003587866333470171,0.5854127012784591,-0.601949838708316,-0.304775842974307
-0.4489670447412263,-0.7675277391615604,-0.31856063360873255,-0.06270078287749496,-0.5391584037961967,0.6096705096262398,-0.2947433044234756,-0.39614119317000496,0.0005353210173734694,0.5878372004354351,-0.6006807808322235,-0.304743086024929
-0.4497001482759375,-0.762203633563972,-0.3125034852880345,-0.0685983268343744,-0.5335425658607506,0.6097629217618243,-0.2896373934283591,-0.39634590287284754,1.813995297022341e-19,0.5945188729475798,-0.5945188729475798,-0.30488146088091217
-0.45078318293690917,-0.757050543782159,-0.30626737264317727,-0.0690224192132864,-0.5280681396276051,0.6044194930535508,-0.2901439567340285,-0.38453922074204494,0.004910348841073279,0.5997525338667866,-0.5874817455933234,-0.29976890665042366
-0.44257088189031435,-0.7439873816336751,-0.3014164720034478,-0.06822056766554126,-0.5183578216884986,0.5947317885959826,-0.2853410453960205,-0.378557114702045,0.012136643001279892,0.6054827257016318,-0.5860938616723047,-0.2919456737877465
-0.43078888363473555,-0.7247467564657885,-0.2939578409129663,-0.06855375500861723,-0.5064078683767691,0.5820611704774534,-0.2813865284494161,-0.3809992246633956,0.01672086215803389,0.6109282903798228,-0.5857930926013709,-0.289189857520927
-0.4268340377779537,-0.708849388160882,-0.28201535038292835,-0.0685983268343744,-0.49543236927190526,0.571652725172979,-0.28201535038292835,-0.37347979237486373,0.022866110497983837,0.6173849834455636,-0.5792747868567182,-0.2896373934283591
-0.426344723750563,-0.695974339084142,-0.2696296094332872,-0.07342717456649298,-0.4830287015784082,0.5653794436260178,-0.27601301589249805,-0.36571276777011946,0.028928233696120728,0.623568998107097,-0.5717042061238974,-0.28462832157867535
-0.4268322941776162,-0.6889119995342591,-0.26207966447322634,-0.08124167900387959,-0.47537926977244654,0.559446151014837,-0.27328440158889583,-0.36651088471959276,0.033634576419949574,0.6241958744373366,-0.5719003616523446,-0.2765592169664174
-0.4260795907256163,-0.6832734921770716,-0.25719387691873086,-0.08409564408327327,-0.47021897004078084,0.5550426466429077,-0.2735505844565145,-0.36377519392316293,0.04064234285893705,0.6258227571817526,-0.5694315717225141,-0.27401499084056335
-0.4268340377779537,-0.678361215979159,-0.25152719683951374,-0.0838423989465046,-0.4649442343667991,0.5564086763587344,-0.2667712829303753,-0.3582357062840022,0.04573222099596767,0.6326290695364251,-0.5640307007658567,-0.2743933073374976
-0.42779431304473875,-0.6779130595180495,-0.2501187685492608,-0.08392737958928337,-0.4643638269046297,0.5569015562477441,-0.26021937515741117,-0.35765877243069844,0.04551728158896657,0.6328611635514881,-0.5637029491778585,-0.273736134922038
-0.42190250759759607,-0.6751985483714605,-0.25329605702840163,-0.0834458979216122,-0.4624916852946092,0.5525487158994423,-0.25566859725153673,-0.35604873603405524,0.048204379215973404,0.6330473372151663,-0.5606967922559678,-0.2754977894145263
-0.418875918664826,-0.6676215799575012,-0.24874568067412037,-0.08425249112988885,-0.45380741653705453,0.5462544096176964,-0.24890783062902966,-0.3463632906835844,0.05665935818028465,0.6444212699007511,-0.553707806465999,-0.27152379070283283
-0.41921201337083136,-0.6631171671649144,-0.24390517243239146,-0.0838423989465046,-0.4497001482759375,0.5411645902678729,-0.24390517243239146,-0.3353695957860184,0.0685983268343744,0.6554951427577921,-0.5487866146749952,-0.25914923988494454
-0.4083856263014507,-0.6577948845379147,-0.24940927786053638,-0.07826790061617532,-0.4501649042535124,0.5354665513305054,-0.24286795610499903,-0.3285361493833442,0.07625999708710794,0.655333498500662,-0.5425536674142927,-0.25193340672566267
-0.3955979175658303,-0.6476309472173442,-0.2520330450869978,-0.07264344805578458,-0.4453799666085472,0.5267592907754586,-0.24656706880835214,-0.32648866945792226,0.07447657851895546,0.6568902501294006,-0.5372707206251817,-0.2493836687329222
-0.3837899438968767,-0.6357643567042376,-0.2519744369462823,-0.06552070081695843,-0.4409429976621636,0.5124191935215423,-0.2542456797160526,-0.3285641506063207,0.07896188362842428,0.6657339128185701,-0.5304423758581154,-0.239521170819032
-0.3658577679677414,-0.625006970576069,-0.25914923988494454,-0.05335425472224421,-0.4420781238688152,0.49543236927190526,-0.2667712829303753,-0.3353695957860184,0.0838423989465046,0.6707391915720368,-0.5259205414536282,-0.22866110497983838
-0.3522839816668587,-0.6131172998681362,-0.2608333307127242,-0.0459337143927131,-0.43744106477604744,0.4823393571466012,-0.28369491155268944,-0.34613855892905465,0.07245446342939671,0.6653825625575678,-0.5308489785735595,-0.22736274469887702
-0.3474242461602444,-0.6014126971699899,-0.25398843439361457,-0.04649523505071647,-0.42605861979466475,0.4759998973100523,-0.2985709927771899,-0.3582829795025445,0.06633977144952692,0.6574951216920409,-0.5346477097401822,-0.22981422256856873
-0.3390543787543429,-0.5901682734168865,-0.2511138774359439,-0.044099540694790815,-0.4159676583995521,0.4692667813896178,-0.3072835215377617,-0.3690339508047651,0.06876237878357645,0.6546834891348418,-0.532196378779751,-0.22677051121804614
-0.32774757137889604,-0.5792747868567182,-0.25152719683951374,-0.03811018261011402,-0.411589988963709,0.45732220995967676,-0.32012550969515685,-0.381101816781986,0.060976293108097865,0.6554951427577921,-0.5335425658607506,-0.2210390619344076
-0.32110326033613473,-0.567442205238863,-0.2463389237390497,-0.03727224505778092,-0.4067618897839543,0.44457072634380224,-0.33817307064110036,-0.39306633725614887,0.053603305521050984,0.654910758050295,-0.5342694544660945,-0.21529489642252267
-0.3165308434480935,-0.5552390384327331,-0.23870818561273605,-0.03916685829484383,-0.39509236383726487,0.43731029084620077,-0.3477572178447063,-0.40003817559736615,0.054136733824358435,0.6552703611195945,-0.5288561452964423,-0.20874452854209777
-0.30980321339445216,-0.545437577272472,-0.23563436653520264,-0.03653400786284107,-0.38682104758407665,0.432128611606863,-0.3520148154971278,-0.40576180019099584,0.051851482315274894,0.6545773317898513,-0.5247168183113583,-0.2048533063247877
-0.30488146088091217,-0.5411645902678729,-0.23628312938696067,-0.030488146554048932,-0.38872384118910835,0.4268340377779537,-0.3582357062840022,-0.411589988963709,0.04573222099596767,0.6554951427577921,-0.5259205414536282,-0.2057949944818545
-0.3037969730273929,-0.5400059923273116,-0.2362090169580292,-0.028955441333179274,-0.38902279035486903,0.42525913224998246,-0.35898779253326507,-0.4119257849226809,0.04464616405677694,0.6563082761951727,-0.5257371451949586,-0.2059674253543865
-0.30733592114358393,-0.5429758982456072,-0.23563998063655794,-0.03485491717052617,-0.387033360252112,0.429724920106952,-0.3547700408245088,-0.4086077574679218,0.047513733644010334,0.6503394207683693,-0.5248586472986434,-0.2047542835817201
-0.3153128816615468,-0.5522080054925147,-0.23689512238719887,-0.038562020528900516,-0.3904251605470111,0.4365948431976019,-0.34792707569504455,-0.40068017530122463,0.04350065621137417,0.6473109885803774,-0.526393251023013,-0.20682904342990527
-0.32774757137889604,-0.571652725172979,-0.24390517243239146,-0.03811018261011402,-0.4039679645565868,0.4497001482759375,-0.34299165746975757,-0.39634590287284754,0.03811018261011402,0.6478731183506697,-0.5335425658607506,-0.21341701888897685
-0.33948825148437867,-0.5945616862505486,-0.2550734556377054,-0.03827551591019925,-0.4212714806857632,0.4668337951207719,-0.33821144146572846,-0.39724122783696425,0.038740410057511575,0.6415592971229296,-0.5399775993992713,-0.21912113617340245
-0.34890564166476434,-0.6151448422954395,-0.266239150055795,-0.0372483689620185,-0.43631228893956936,0.48213234272041716,-0.3284572691474142,-0.3909082737626435,0.0326630868011839,0.637295101260652,-0.5417825249455002,-0.2259525838049401
-0.36372267568392347,-0.642000681478412,-0.27827797058243425,-0.03972515740576873,-0.4572455858927019,0.5028540033550989,-0.32970151748962295,-0.3895846996051466,0.017826143620658087,0.627137509877749,-0.5540881705467705,-0.24255815526117577
-0.381101816781986,-0.6707391915720368,-0.2896373934283591,-0.04573222099596767,-0.4801883204576606,0.5259205414536282,-0.3353695957860184,-0.39634590287284754,0.007622036638512234,0.6097629217618243,-0.571652725172979,-0.25914923988494454
-0.38757904172122154,-0.6876645974173252,-0.3000855255922722,-0.041454472246781074,-0.49165347734764264,0.5374979873814163,-0.32828573692433705,-0.3954685151971732,0.002317356736777744,0.6026987141527224,-0.576946166112125,-0.2646948441365494
-0.39278048332802773,-0.706784419358153,-0.3140039309316377,-0.03403993417568963,-0.504807582087353,0.5500764899146124,-0.33282127893048996,-0.40196609363679914,-0.0063792952416795974,0.5963946752465933,-0.5855338935772937,-0.2730088601238428
-0.41056215309371025,-0.7312008998915478,-0.32063878355697506,-0.04253707401787335,-0.5238251996310137,0.5705228784247953,-0.3463406825655097,-0.4147666001392874,-0.020507077476272312,0.5805350408247943,-0.5976249285997172,-0.2859553667893523
-0.4268340377779537,-0.7469595847497275,-0.32012550969515685,-0.05335425472224421,-0.5335425658607506,0.5868968112638405,-0.35061368187687986,-0.41921201337083136,-0.03811018261011402,0.5640307007658567,-0.6097629217618243,-0.2972594364737899
-0.4321786286684384,-0.7573253937565014,-0.3251467363661608,-0.05329159960641898,-0.5377523783114934,0.5980250401445478,-0.35567459050331096,-0.4239845229637076,-0.051155029292699467,0.5508994227319501,-0.6274105261402619,-0.3089587539528427
-0.4391371825578277,-0.7702274067502712,-0.3310902690728865,-0.05470034261153465,-0.5486180241615977,0.6073840436921152,-0.3614347853467825,-0.4307577656144959,-0.05616860886759233,0.5448944714860992,-0.6367986678594317,-0.316756025822985
-0.4409368839462372,-0.7791690954775015,-0.3382322291673566,-0.05028656193380508,-0.5586146937170952,0.6090732354466813,-0.36875289308082065,-0.43580399784442414,-0.06468715184559065,0.5372861426352877,-0.6425717649404383,-0.32168204862311617
-0.434456062185076,-0.7850697813385727,-0.35061368187687986,-0.03811018261011402,-0.5640307007658567,0.6097629217618243,-0.381101816781986,-0.4420781238688152,-0.07622036522022804,0.5259205414536282,-0.6554951427577921,-0.32774757137889604
-0.4334067309530634,-0.7907630596826908,-0.3573562879962466,-0.036811053484506674,-0.5695843565605083,0.6153460456536732,-0.3872863334210618,-0.447413851653893,-0.0820573883286211,0.519256633313359,-0.6615976900120486,-0.3328933911457804
-0.43458036800123606,-0.7927094743960945,-0.3581290717385487,-0.0391575974888998,-0.572331638304594,0.6176645265044851,-0.3916530122584233,-0.4534737225710936,-0.08813777246673937,0.5140683922615797,-0.6657896104901201,-0.34012243180314194
-0.4340707007954533,-0.7919191227350159,-0.35784838358855875,-0.03762147084518961,-0.5706301961116819,0.6167587935431889,-0.39752163239921307,-0.4578459846163541,-0.09190385157590006,0.5090497109261767,-0.6716430465098105,-0.3421468650161762
-0.434456062185076,-0.7926918057456951,-0.3582357062840022,-0.03811018261011402,-0.571652725172979,0.6173849834455636,-0.39634590287284754,-0.45732220995967676,-0.09146444199193535,0.5106764180861498,-0.6707391915720368,-0.3353695957860184
-0.4337045776409989,-0.7921153235817209,-0.3584107089964312,-0.038093862290272174,-0.5719460778631579,0.6166738267831932,-0.3947545411882017,-0.4564866586328259,-0.09675795510588696,0.5111111584490737,-0.6693315611583428,-0.3337235012699727
-0.43528069238455097,-0.7920975689940107,-0.35681683869201586,-0.03850548090103749,-0.569719178735826,0.6177007353173323,-0.3984360877641138,-0.45768255559540705,-0.10097507079972731,0.5087426972969308,-0.6715094092170755,-0.3371694059601238
-0.43203661499131363,-0.7918090974894012,-0.3597724486016072,-0.036807699553488615,-0.5731941005258189,0.6151951437038155,-0.3931102486021246,-0.4563430500619483,-0.09782844561994133,0.5114906875315437,-0.6690141029235103,-0.3327920256658091
-0.4268340377779537,-0.7926918057456951,-0.3658577679677414,-0.030488146554048932,-0.5792747868567182,0.6097629217618243,-0.38872384118910835,-0.45732220995967676,-0.09908647571821189,0.5106764180861498,-0.6707391915720368,-0.32774757137889604
-0.43167742991494784,-0.7974428280642305,-0.3657654141339827,-0.029231262216870214,-0.5788752168270995,0.6135498377586497,-0.39540111989997767,-0.4585480404492198,-0.10545454036970686,0.5029638567604184,-0.6774960560533436,-0.32801062617823895
-0.43571267587860313,-0.8035815504096656,-0.36786882425572487,-0.03213677498339984,-0.581211327380382,0.6224140087363308,-0.3925288262456169,-0.4518977040533772,-0.10722144935324354,0.5061719054139988,-0.6740799708130528,-0.3239668113071602
-0.4331842028722243,-0.8092983376467499,-0.3761140696478884,-0.028273834592116107,-0.5891893964373607,0.6244515855024297,-0.3888699560254228,-0.4504767265104809,-0.10668544584745582,0.5100177517429532,-0.670378382359053,-0.3188249661063098
-0.434456062185076,-0.815557878967062,-0.381101816781986,-0.022866110497983837,-0.5945188729475798,0.625006970576069,-0.39634590287284754,-0.45732220995967676,-0.10670850944448843,0.5030543936790275,-0.678361215979159,-0.32012550969515685
-0.4348097350196385,-0.8159127326154454,-0.38110300428703997,-0.022640517656553078,-0.5946276696939791,0.6251189167767419,-0.3971014948536217,-0.45773201534246677,-0.10651370519471173,0.5010693405515597,-0.6795608258037877,-0.32032885810773654
-0.4325970667040948,-0.8134568435974281,-0.3808597733712884,-0.0222066129673933,-0.5932436435021683,0.6230886668203011,-0.39603420794643807,-0.45751524094890383,-0.10789552906508013,0.5040377824660287,-0.6757281087188304,-0.31959411115221315
-0.4360305228263027,-0.8168698699049725,-0.3808393435677898,-0.02422422655747069,-0.5955587468619826,0.6265641056394424,-0.39520013906311524,-0.45595673492805466,-0.10512084017330484,0.5012111319691955,-0.679614772569274,-0.3194489425180833
-0.4420781238688152,-0.823179977927418,-0.381101816781986,-0.030488146554048932,-0.6021408973547021,0.6326290695364251,-0.38872384118910835,-0.4497001482759375,-0.09908647571821189,0.5030543936790275,-0.678361215979159,-0.3125034852880345
-0.4422318070628106,-0.8233797576132678,-0.3811479067043339,-0.031246467438912025,-0.603222589333028,0.6321806338476393,-0.38322117555116497,-0.44950233054311345,-0.0992514543184416,0.5088551192718774,-0.6706637396497918,-0.3048150010441228
-0.44363567009800847,-0.822099701612205,-0.3784640023914947,-0.03162660380342699,-0.5976468622493232,0.6353030312045205,-0.3742040233718386,-0.44852176280103895,-0.0974132251870522,0.5094226549678075,-0.6746609304995467,-0.3085283311791144
-0.45427766816516557,-0.8231924151187614,-0.36891470353750166,-0.043477780390540066,-0.5927016294465104,0.6420464768166958,-0.36114475729143924,-0.43755518981331204,-0.088272887970266,0.5111352619116374,-0.6776983265869114,-0.31328656088793344
-0.47256625877392133,-0.823179977927418,-0.35061368187687986,-0.060976293108097865,-0.5868968112638405,0.6478731183506697,-0.34299165746975757,-0.41921201337083136,-0.07622036522022806,0.5182984797698891,-0.6707391915720368,-0.3125034852880345
-0.49536593267390877,-0.818363672187421,-0.3229977353296665,-0.08234938860294735,-0.5713241211431396,0.6590898459890573,-0.30098856355820247,-0.3880934425561823,-0.05170343944207284,0.5268594162731364,-0.6701363195980361,-0.3127869007854766
-0.521254637819853,-0.8062655778111343,-0.2850109328080007,-0.11651178099361405,-0.5437847639990524,0.6691480010906583,-0.23927459702557735,-0.3386511254799347,-0.00616968396746942,0.5487514798536173,-0.6698666410393689,-0.3125327924049112
-0.552585751466248,-0.7837088828487944,-0.2311231122783891,-0.16031092557639806,-0.5028945444560664,0.6705420250787418,-0.17667091862806528,-0.2734645209992906,0.04954470488817652,0.5828910051033425,-0.6581182625009971,-0.31254309339282615
-0.5868968112638405,-0.7545816091568497,-0.1676847978930092,-0.2057949944818545,-0.45732220995967676,0.6707391915720368,-0.10670850944448843,-0.190550908390993,0.1143305524899192,0.625006970576069,-0.6402510193903137,-0.30488146088091217
-0.6089125187005655,-0.7211891707788995,-0.11227666281756701,-0.24440133405698822,-0.41624642561554204,0.6676412096508137,-0.024711050683980676,-0.08052316623972627,0.19767909391227353,0.6837842762698085,-0.6098816970657981,-0.2827740505689571
-0.6024343877204853,-0.68008627329323,-0.07765188858056703,-0.25812684745104736,-0.3787605850567848,0.6463064254659963,0.0462581602857847,0.05920536718051919,0.2928479391662008,0.7616584021759819,-0.554640515145711,-0.25859302455368144
-0.5609532363397565,-0.6289935650181941,-0.06804032116892397,-0.24372533122940376,-0.3489215599724172,0.5975493750019052,0.10222112276401238,0.22852865064463793,0.3926851461914552,0.8574169878697401,-0.4717093190282789,-0.21948435044073955
-0.47256625877392133,-0.5640307007658567,-0.09146444199193533,-0.19055090839099303,-0.32774757137889604,0.5182984797698891,0.14481869671417957,0.4268340377779537,0.5030543936790275,0.9832427141366882,-0.3582357062840022,-0.14481869671417955
-0.3271836923605559,-0.4803938572795219,-0.1532101842001578,-0.08390298581545975,-0.31320210240246477,0.4039505458584892,0.1536843397797633,0.6327788172758492,0.6192195860601423,1.1307925413339888,-0.21349981412286628,-0.04949198671494823
-0.12869210796113645,-0.38064329999576396,-0.2519511965517631,0.06426697672392384,-0.3144133942004232,0.25402809173247143,0.11403808136037717,0.8027757307147603,0.7246932162943819,1.2843634087460933,-0.04129025158503067,0.0614486565544178
0.11846526833304108,-0.2630302504675463,-0.38149550270028226,0.24928889883949187,-0.3219940884544241,0.07336286209881404,0.02696665708495257,0.9156950722535524,0.8127083257268019,1.4526222573803969,0.1650645743007398,0.20434312530786233
0.4039679645565867,-0.1371966536687488,-0.5411645902678728,0.4725662587739213,-0.3353695957860184,-0.12957461994247227,-0.11433055248991919,0.952754541954965,0.8765342233305082,1.6234937335270017,0.39634590287284754,0.37347979237486373
0.6982557621496097,-0.019823187800217693,-0.718078900038125,0.70818965902385,-0.3672154801555263,-0.3380969689796517,-0.30707452920780914,0.8781424438901514,0.8977258066514566,1.7615931622155703,0.6108278234469878,0.5379836700763007
0.9755204832316606,0.08295377600804502,-0.8925666750583543,0.934446066294264,-0.4065961476201941,-0.5299520280762511,-0.5383627570837722,0.6755259326738197,0.8626007965997097,1.8582285336515514,0.7753129156613746,0.6769873547471937
1.2187510759396767,0.15797619309377703,-1.0607748776679986,1.1388175999957701,-0.4498149506306821,-0.6881028143165782,-0.7966816357890251,0.3682244137850644,0.7701834182092627,1.8908179621868055,0.8823862528935846,0.7878460865003274
1.3795886542861524,0.17530684093843993,-1.2042817947094042,1.2881242122942171,-0.5106764180861498,-0.7774476823782167,-1.0594630327611452,-0.022866110497983847,0.6021408973547021,1.821666666325117,0.899400296551875,0.8460460511487851
1.4172760760615146,0.13250083270623714,-1.2847752432823007,1.3497975790679029,-0.5751965461111038,-0.7748641632589219,-1.290527826024685,-0.474974798102358,0.35801067211935533,1.652089239086871,0.7980035767755177,0.8289184440474675
1.3366221053575034,0.04236587989635428,-1.294256282832889,1.3163002705749554,-0.6265829634688947,-0.6897205849700538,-1.4693166013721473,-0.9463056660241375,0.0789636572347019,1.4042739828920892,0.5941390488709537,0.7484285080053809
1.143024014917092,-0.0970363174403612,-1.2400604024498887,1.1911565681397631,-0.6682150275418625,-0.522676509991883,-1.5861086693573003,-1.394030743545196,-0.21281712906146993,1.0953654719267352,0.30912673139778435,0.6107781249782306
0.8536680755559074,-0.2743933073374976,-1.1280614015317134,0.9908647385438105,-0.7012273637537597,-0.2896373934283591,-1.631115757934124,-1.775934519882383,-0.5030543936790275,0.7545816091568497,-0.030488146554048932,0.41921201337083136
0.5233100300938328,-0.45753859591483836,-0.9808486179326419,0.7522661524768238,-0.7196678041201698,-0.03379984052842507,-1.6065186258762252,-2.053128282106172,-0.7534438179506976,0.42586896299236365,-0.3723591273901597,0.20706910895863392
0.1942903967698711,-0.6355199914453489,-0.8298104089012845,0.5117789529797954,-0.73081464180314,0.22357912580689476,-1.5261058231400406,-2.2070648599089355,-0.939816340306473,0.15309599979720473,-0.6776258959608881,0.0030942753810949872
-0.09774471478368169,-0.7970187024246895,-0.6992739829705852,0.3012619159500891,-0.7437528913471082,0.4502013049165246,-1.403772133421626,-2.222881636922091,-1.0479890525742086,-0.040561673044094845,-0.9159189327061922,-0.17907541661530446
-0.3125034852880345,-0.9222664443264759,-0.6097629217618243,0.15244073044045608,-0.762203633563972,0.6173849834455636,-1.2576359655592604,-2.103682165814513,-1.067085131721501,-0.14481869671417955,-1.067085131721501,-0.32012550969515685
-0.4438182140649635,-1.0078131702325943,-0.5639949528295004,0.06513760958505797,-0.7849949800529414,0.7291129880873827,-1.0991222248080565,-1.8817544079444497,-1.0088986086577347,-0.1634477013206263,-1.1360007274138078,-0.40794946880538674
-0.5088597407112737,-1.0567587063396964,-0.5478989451965629,0.02003739434130326,-0.8031193491818777,0.7848852528374168,-0.9339185975054145,-1.5960090975277041,-0.8947386262580734,-0.11361358194049204,-1.135761974820714,-0.4523961042317954
-0.5150669217736938,-1.0655401691286128,-0.5504732188025567,0.01888725599468047,-0.8074485618956908,0.790547330126051,-0.7830278325671789,-1.2971811279083276,-0.7514843859904947,-0.020113398423022857,-1.0839165538993285,-0.46723006735111433
-0.4878103448647829,-1.0442189839469005,-0.5564086763587344,0.03811018261011402,-0.8003138301528174,0.7698257325243281,-0.6554951427577921,-1.0213528361722997,-0.6021408973547021,0.09146444199193537,-1.006108787358055,-0.45732220995967676
-0.4549666494495331,-1.0060912924683814,-0.5511246668141933,0.048386291122852206,-0.7796261097830064,0.7320579665589735,-0.5472481458160499,-0.7789334846604284,-0.4617295810278137,0.20045395828338047,-0.9202208856918991,-0.43021355610748724
-0.4144188817810804,-0.9562124476169325,-0.5417935279235787,0.06575862830274128,-0.7459401769436359,0.6841109877360653,-0.4703273347372159,-0.5903490097011252,-0.34426652061312446,0.30090449395544744,-0.8381122846847024,-0.396622324367242
-0.3803545996337865,-0.9066400340274219,-0.5262854111689884,0.07622056381445926,-0.7136915054978037,0.6440860936362158,-0.4177221952188055,-0.468916145017706,-0.2555167602440441,0.38069208542849037,-0.7742539582348973,-0.36295541941788917
-0.3658577679677414,-0.868912124370152,-0.5030543936790275,0.0685983268343744,-0.6859833149395151,0.6173849834455636,-0.381101816781986,-0.39634590287284754,-0.190550908390993,0.434456062185076,-0.7317155359354828,-0.3353695957860184
-0.35914382040781057,-0.8388378803514758,-0.4796941123168006,0.06327066540290814,-0.6559394391968748,0.5986146088052122,-0.35773159418678835,-0.3519828321979818,-0.14695937901314227,0.470166768170632,-0.7014661640863553,-0.3172920465031611
-0.36072463058110216,-0.8164681316224371,-0.4557434925103507,0.05001872174241604,-0.6340670182444132,0.58908913005091,-0.3326481390719333,-0.3283940952357782,-0.12279239055718388,0.4939871380485861,-0.6799252362505734,-0.3040450193169152
-0.3683943344182147,-0.8044514816099422,-0.43605711102841127,0.03370694412366742,-0.6199746360112948,0.5860266028887892,-0.3156096827159926,-0.3152980757854648,-0.11081106113253736,0.5053944726870326,-0.6668210553655793,-0.29467777698495135
-0.37347979237486373,-0.8003138301528174,-0.4268340377779537,0.030488146554048932,-0.6097629217618243,0.5868968112638405,-0.3125034852880345,-0.3125034852880345,-0.10670850944448843,0.5106764180861498,-0.6631171671649144,-0.2896373934283591
-0.3792132903410034,-0.7994372389947857,-0.4202239536301278,0.02501136337068995,-0.6083672443211753,0.5923068378634889,-0.3056750434213208,-0.3176552567296504,-0.10638156768766215,0.5113200802673413,-0.6678684248433752,-0.28837055399834344
-0.3818871087805789,-0.7997724119720158,-0.41788529883156783,0.021163190011283348,-0.6099087551782133,0.5951881451226154,-0.3043636799740791,-0.31984861391244684,-0.10571960556966573,0.5089728168716389,-0.6719437416730705,-0.2932304130793349
-0.3801672941508854,-0.7993364155332392,-0.41916912337422313,0.023615342054187687,-0.6087879355901509,0.5932812597431121,-0.30255597257345546,-0.3189819313533623,-0.1073359324704499,0.5120894011172963,-0.6684716533347437,-0.29782643636763273
-0.381101816781986,-0.8003138301528174,-0.41921201337083136,0.022866110497983837,-0.6097629217618243,0.5945188729475798,-0.2972594364737899,-0.32012550969515685,-0.11433055248991919,0.5106764180861498,-0.6707391915720368,-0.2972594364737899
-0.38129575619711165,-0.8000618138944195,-0.4187660570197805,0.022429610546898474,-0.6095507118151527,0.5947463580942944,-0.2977399553022097,-0.3144843824684474,-0.11587301947008938,0.5025950267833763,-0.6774441684515855,-0.29663888107553615
-0.37984305919944295,-0.7986094527422753,-0.4187663938156845,0.023320597291758564,-0.6086695630728144,0.5925994344725554,-0.29195078133467867,-0.30949002749300564,-0.10911138995846004,0.5076109421555152,-0.6740142499749824,-0.29728856385691294
-0.38153663566206836,-0.8004619754790671,-0.4189253400520184,0.02257608964508048,-0.6095799688992458,0.5952396496222112,-0.2905912537170049,-0.3139112413537305,-0.10644748209763402,0.5088591552993617,-0.6694705109964922,-0.29670636966853775
-0.381101816781986,-0.8003138301528174,-0.41921201337083136,0.022866110497983837,-0.6097629217618243,0.5945188729475798,-0.2972594364737899,-0.3125034852880345,-0.10670850944448843,0.5030543936790275,-0.6707391915720368,-0.2972594364737899
-0.3791940898132354,-0.7932707723334027,-0.41407668129292413,0.018610654996943466,-0.6042369051966758,0.5867355464441211,-0.29126306116099143,-0.29995934197332885,-0.10085989065501874,0.513521804185081,-0.6648394013167898,-0.29734686243320074
-0.38615782716094676,-0.791962457598106,-0.4058046332491854,0.008583432936539305,-0.5966180392629026,0.5901923437192322,-0.29107087411086213,-0.2954134730546646,-0.09770666818602501,0.5207826346553285,-0.6607133846621964,-0.29634455652311054
-0.38710977041020567,-0.7908228331748958,-0.4037130593983029,0.009589582651758938,-0.5937169670786281,0.593750589046797,-0.2988346498770169,-0.2975653833349317,-0.09964506221822872,0.5165496425845123,-0.6635603361868294,-0.29765655052150025
-0.381101816781986,-0.7850697813385727,-0.4039679645565868,0.015244073277024466,-0.5945188729475798,0.5868968112638405,-0.2972594364737899,-0.2972594364737899,-0.09908647571821189,0.5182984797698891,-0.6631171671649144,-0.2972594364737899
-0.38130795004711693,-0.7794932325345298,-0.3981853139738304,0.009577427299233244,-0.5896542718313166,0.5807941390513587,-0.29628253551084927,-0.2928377299002432,-0.0940079729443446,0.5230752154732031,-0.6572362959647053,-0.29107099364663847
-0.3768129635617211,-0.7688962552553008,-0.3920833194121915,0.006751882810643118,-0.5783676804887639,0.5739630918857273,-0.2976848984868026,-0.2804912068062294,-0.08620314550940408,0.5306039186200405,-0.6503575107177413,-0.28835160027195633
-0.3729015779691885,-0.7597344802435541,-0.3868328913178364,0.0074653908348488365,-0.5689953382559544,0.571239985149171,-0.296686029946752,-0.2732812326114497,-0.08384055064963938,0.532803757955395,-0.6467240036514711,-0.28982784686179036
-0.37347979237486373,-0.762203633563972,-0.38872384118910835,0.007622036638512234,-0.571652725172979,0.571652725172979,-0.2972594364737899,-0.2743933073374976,-0.0838423989465046,0.5335425658607506,-0.6478731183506697,-0.2896373934283591
-0.36694443128928633,-0.7628417363008698,-0.39589734116577074,0.013766140300258687,-0.5784734065127035,0.5648138752661944,-0.2971789389898819,-0.2686447876189081,-0.07785355883556719,0.540193309884894,-0.6476274684348514,-0.28925879141106436
-0.36599982546168996,-0.7578154193870783,-0.3918156147784093,0.015272844246634023,-0.5755115329349239,0.5641157853437822,-0.2968835753604059,-0.2652345323732356,-0.0752713127909275,0.5369246867700475,-0.6469443566337352,-0.28947620568665516
-0.36291778071879194,-0.7519299479753271,-0.38901216229256974,0.01658555576196114,-0.5700429392514802,0.5608512578044287,-0.2970315806655337,-0.26703327643017555,-0.07631723263766167,0.5335047400426858,-0.6476121851511283,-0.28939052617026406
-0.35061368187687986,-0.7469595847497275,-0.39634590287284754,0.022866110497983837,-0.571652725172979,0.5487866146749952,-0.2972594364737899,-0.2667712829303753,-0.07622036522022804,0.5411645902678729,-0.6478731183506697,-0.2896373934283591
-0.34916319729368106,-0.7458171767880761,-0.39665398082572245,0.02283208994445312,-0.5719537325958409,0.5472126657487194,-0.2974127734764319,-0.2624272075184188,-0.0768758164951091,0.5414218736390217,-0.6425453884798232,-0.2893359599565378
-0.3491374546645131,-0.7451586414548337,-0.39602118602012626,0.025804029298136907,-0.5681437527675065,0.5470752265786315,-0.29438266971115634,-0.2499361993513609,-0.07246025893193142,0.5423348497558937,-0.63430447949695,-0.2895986348363238
-0.3392130156405476,-0.7339658527940328,-0.3947528369795655,0.03176774841297604,-0.5609243409443814,0.5372227125395561,-0.2866511081065361,-0.2428843057866957,-0.06762723957656812,0.5514665256610088,-0.6322278481536756,-0.2891360095084996
-0.3353695957860184,-0.7240934369751267,-0.38872384118910835,0.030488146554048932,-0.5564086763587344,0.5335425658607506,-0.28201535038292835,-0.24390517243239146,-0.0685983268343744,0.5564086763587344,-0.6326290695364251,-0.2896373934283591
-0.33596418806082107,-0.7237964352238145,-0.3878322489018102,0.029936865924432548,-0.5564764204580696,0.5340404398135239,-0.28195791364363654,-0.2380610795879295,-0.06868977771349831,0.5560133564965426,-0.6263635948049572,-0.2902915889412603
-0.33134598606876875,-0.7199042448142372,-0.38855825469115973,0.030976170766588387,-0.5523929154375871,0.5291788075803409,-0.28107004915530426,-0.2351628920490906,-0.06863235956226332,0.5558352686678102,-0.6231582177387216,-0.28561337064506026
-0.32646582056971324,-0.7150554927610437,-0.3885896768169189,0.030134692715453226,-0.5472505873996334,0.524625397393487,-0.2826323354038594,-0.2355435323026202,-0.06822667984123713,0.5560368469234551,-0.6251453370507176,-0.2808289417666443
-0.32774757137889604,-0.7164714125680044,-0.38872384118910835,0.030488146554048932,-0.5487866146749952,0.5259205414536282,-0.28201535038292835,-0.22866110497983838,-0.0685983268343744,0.5564086763587344,-0.625006970576069,-0.28201535038292835
-0.32367284722468964,-0.710952328098525,-0.38727944669458514,0.035272821705069915,-0.5489098578945535,0.5214210270243134,-0.2752072242606805,-0.22218581084762645,-0.06973216099777803,0.555575752778612,-0.6195457234493924,-0.28254820686177484
-0.3128389615515138,-0.7056797072614855,-0.39284072369553735,0.0434997970654178,-0.5475652400657701,0.5113788554004396,-0.274575525967038,-0.2177273288633803,-0.06405938911360637,0.5584850449789567,-0.6115956901731836,-0.2787678123124975
-0.31391058781145015,-0.7099942342123393,-0.3960836508643236,0.0454526631387403,-0.5488494362059091,0.5112917636242957,-0.27243589398937584,-0.21089938289397642,-0.06081617906609557,0.5662935455137842,-0.6093445181813366,-0.2716422451660115
-0.3125034852880345,-0.708849388160882,-0.39634590287284754,0.04573222099596767,-0.5487866146749952,0.5106764180861498,-0.2667712829303753,-0.2057949944818545,-0.060976293108097865,0.571652725172979,-0.6097629217618243,-0.2667712829303753
-0.29857870928244623,-0.7009336361457713,-0.402354951754912,0.051865809614108645,-0.5474340437992232,0.5026600017881132,-0.2670812801469795,-0.20049573049817798,-0.054865108616694754,0.5709535688916128,-0.6034543419017757,-0.2667739485224262
-0.3009083240849935,-0.7042408178951974,-0.40333254227939014,0.05355992493015646,-0.5520357702911941,0.507308237258946,-0.2623961623098272,-0.19306137696584813,-0.05290992648281423,0.5738678562142938,-0.6005347582991656,-0.26373053185363754
-0.30292803432247206,-0.7082990692695796,-0.4053710636270507,0.05435125371906764,-0.557010951286157,0.5083478781722015,-0.2593377156510742,-0.19020424997059235,-0.05288169389182361,0.5806812437898641,-0.6020002022862802,-0.25710731689283806
-0.2896373934283591,-0.7012273637537597,-0.411589988963709,0.060976293108097865,-0.5564086763587344,0.49543236927190526,-0.2667712829303753,-0.190550908390993,-0.05335425472224421,0.5792747868567182,-0.6021408973547021,-0.25914923988494454
-0.2880111384335703,-0.6941310312829073,-0.4061199145883024,0.06207434418417124,-0.5508279595651308,0.49343099331676077,-0.26766184004956806,-0.18531396405736394,-0.06012633575758105,0.5717486180811577,-0.602101147307548,-0.2659918704965929
-0.28833123971264435,-0.6904064572645123,-0.4020752246454361,0.05948390673384748,-0.5435253421253252,0.49473118649207526,-0.2654333813890445,-0.17841983160164065,-0.05794177707113556,0.5737222175584368,-0.5986755786777123,-0.26393612362113306
-0.2784225791386265,-0.6820111332363628,-0.40358855591261983,0.06199252840738238,-0.5398190585818385,0.4825125172949679,-0.26708259713146315,-0.17360179028512987,-0.05240065008274136,0.5810196733475039,-0.5917809036912678,-0.2566378659841018
-0.2743933073374976,-0.6707391915720368,-0.39634590287284754,0.060976293108097865,-0.5335425658607506,0.47256625877392133,-0.2667712829303753,-0.1676847978930092,-0.05335425472224421,0.5868968112638405,-0.5868968112638405,-0.25152719683951374
-0.2697157564965555,-0.6584888225709461,-0.38877306484406005,0.05910442959965145,-0.5205131578357193,0.46707904546468976,-0.2662344116717217,-0.15706937644878863,-0.048273748582322765,0.5923923947652411,-0.5809376093590234,-0.24570424607100724
-0.2608600198792283,-0.6497941700966338,-0.3889341041975135,0.06638269764005156,-0.5169662066725498,0.45945229792683223,-0.2668565242483212,-0.1430596778506146,-0.041668001121570875,0.5967596002899695,-0.574784211366585,-0.240023520700825
-0.25868359828427856,-0.6463140059762709,-0.38763038773745884,0.06773335661344085,-0.5170596639880118,0.45637388482773844,-0.26629048792586885,-0.1354507951835669,-0.0358559819132397,0.6052873785873324,-0.5693292725504894,-0.2338606080783133
-0.25152719683951374,-0.6402510193903137,-0.38872384118910835,0.0685983268343744,-0.5106764180861498,0.4497001482759375,-0.2667712829303753,-0.12957461994247227,-0.030488146554048932,0.6173849834455636,-0.5640307007658567,-0.22866110497983838
-0.23781259112131609,-0.6325900103740554,-0.39477739821534513,0.08102753319894865,-0.5091333931069246,0.43609775862317024,-0.2668869109318631,-0.11752537347058249,-0.030846907787830998,0.6229399422232696,-0.5580523057157696,-0.22841826461557224
-0.23713724647796203,-0.6332937599669934,-0.3961564644957089,0.08408260295123939,-0.5116994499786189,0.4347172619992401,-0.2658144942236449,-0.11037010220153504,-0.027187442125587595,0.6282049137616629,-0.5519252588195288,-0.22644862145378214
-0.23279558636050482,-0.6292731200704892,-0.3964775038149494,0.08547754915806274,-0.5086048064661624,0.4311328156397115,-0.26719847457250606,-0.10344162380754295,-0.021127018229938142,0.6336810866454698,-0.5460623026143702,-0.21715777428673783
-0.2210390619344076,-0.6173849834455636,-0.39634590287284754,0.09146444199193535,-0.5030543936790275,0.41921201337083136,-0.2667712829303753,-0.09146444199193535,-0.015244073277024466,0.6402510193903137,-0.5335425658607506,-0.2057949944818545
-0.2212123376606434,-0.6109437270845087,-0.38973137320044415,0.08533317464858828,-0.49699319434322736,0.4186880594952097,-0.2647690669290436,-0.08504660958891892,-0.007821525071380016,0.6469385512306081,-0.5192710310497555,-0.19870699076675347
-0.2148300866242184,-0.6032298508554019,-0.3883997349495558,0.08601955010468046,-0.4911510634378987,0.4140166857130026,-0.27386043810770666,-0.08038764192139994,-0.011499226246739967,0.6456631607454748,-0.519027845211403,-0.19827173174026827
-0.20244923005085677,-0.5894506627278585,-0.3870013963564287,0.09263294555487202,-0.4855157190129467,0.39862045531289864,-0.2843603987415309,-0.07421957135106991,-0.014908070339281376,0.6506476830140304,-0.5146770003537446,-0.19697267903079171
-0.19817295143642377,-0.5792747868567182,-0.381101816781986,0.09146444199193535,-0.4801883204576606,0.38872384118910835,-0.2896373934283591,-0.0685983268343744,-0.007622036638512234,0.6631171671649144,-0.5030543936790275,-0.190550908390993
-0.18753127339204018,-0.5680999187080866,-0.38056864152922537,0.09628789581344964,-0.4741996686371551,0.3777067621267169,-0.29590214168539436,-0.05778095692402261,-0.0018749244940112163,0.6676980051946678,-0.4977498401334899,-0.17976576240554268
-0.17492185190118495,-0.5550158183603824,-0.3800939717604713,0.10291025798670966,-0.46822225942883844,0.36489612104076996,-0.2966148925163153,-0.04503765437898779,0.004615434443049809,0.6780317112509351,-0.4866016805957765,-0.1661325605265862
-0.16288926562176395,-0.5453536425543767,-0.3824643691128321,0.10949574436565299,-0.46275646177659,0.35459107536145806,-0.29852075903767616,-0.03451628805567915,0.007755990980858213,0.6873910130644016,-0.47834828870621465,-0.15814150705254393
-0.14481869671417955,-0.5335425658607506,-0.38872384118910835,0.12195258621619573,-0.45732220995967676,0.34299165746975757,-0.30488146088091217,-0.022866110497983837,0.007622036638512234,0.6936053393466374,-0.47256625877392133,-0.15244073044045608
-0.12754127927386918,-0.5156921593590316,-0.38815087681414734,0.13315881615262376,-0.4511571155877292,0.326484566322979,-0.30903327735205355,-0.015747662738026927,0.01372275778835569,0.705901243732294,-0.45397998152539193,-0.14068427935394823
-0.11008168213187244,-0.5019176814145307,-0.39183602053218086,0.1455515349146139,-0.4458547986166978,0.30695953058693815,-0.3210618548291213,-0.013726417693519963,0.015433641062961002,0.7076674591976179,-0.4456551885952165,-0.13265942584206009
-0.09457606721149021,-0.4908274650833372,-0.396251396747491,0.15372996994567778,-0.4388274108905422,0.2933999384704401,-0.3280430278035452,-0.0028104165808594825,0.016492583803918787,0.7119322494325921,-0.43686369601628827,-0.12693468561670007
-0.0838423989465046,-0.47256625877392133,-0.38872384118910835,0.15244073044045608,-0.4268340377779537,0.28201535038292835,-0.32774757137889604,0.007622036638512233,0.022866110497983837,0.7317155359354828,-0.41921201337083136,-0.11433055248991919
-0.06800586816224413,-0.44924166390951803,-0.3812357825260035,0.15618521698838322,-0.41430768530003154,0.26011325883613706,-0.3385077025077048,0.0068700144336553155,0.02315433163901365,0.7385461603296527,-0.4137384406166854,-0.1021272036542544
-0.04575029981599325,-0.4268617546556701,-0.3811114330976809,0.1683043596956911,-0.405124737161762,0.2348269059895644,-0.3471728995503431,0.014282801136964611,0.0252262888847757,0.7428062502348758,-0.398652117498293,-0.09246421079557807
-0.02346741960201987,-0.40310213114100235,-0.3796346903736738,0.17750988914048413,-0.3899989717416571,0.21461351563044723,-0.3537799310893137,0.02535707184816826,0.03244468943769642,0.7600393250301928,-0.3736721104321371,-0.07908995738475497
-0.007622036638512233,-0.381101816781986,-0.37347979237486373,0.1829288839838707,-0.37347979237486373,0.19817295143642377,-0.37347979237486373,0.022866110497983837,0.030488146554048932,0.7698257325243281,-0.3658577679677414,-0.0685983268343744
0.007521576437143611,-0.36349566074007267,-0.3710172582877846,0.19283544907656552,-0.36666682299675685,0.18166495239620684,-0.386897800369861,0.021241385589422755,0.02833776742108572,0.7728918403909735,-0.35655759186919833,-0.05881011497965557
0.034204046243984786,-0.346433425255404,-0.38063746511234675,0.20949750746581075,-0.3622336711964065,0.16040178606483935,-0.3922046085035643,0.027453269745613337,0.03648104410423293,0.7885440006368971,-0.3369945015085335,-0.04047551888701589
0.06163345738326872,-0.3294028971830259,-0.3910363516643416,0.22631788982499038,-0.35577963355246056,0.13685919530740523,-0.4119125698618462,0.03119627373235991,0.03642921104744339,0.8031270934730251,-0.3239754576709122,-0.027118001041275163
0.0838423989465046,-0.3125034852880345,-0.39634590287284754,0.24390517243239146,-0.35061368187687986,0.11433055248991919,-0.434456062185076,0.030488146554048932,0.030488146554048932,0.8079359291131736,-0.3125034852880345,-0.015244073277024466
0.10738217673235859,-0.2990015536720627,-0.40638373736727373,0.2617848864659066,-0.34877856632374526,0.09555938933062896,-0.4451525258036084,0.025533234993980115,0.031290209739268146,0.8129133939678403,-0.2994846194905658,0.0036169196672222815
0.12550401817079454,-0.2947303863147221,-0.4202343965032833,0.273999053225931,-0.35521464274368303,0.0846850230597144,-0.4606950570928375,0.01803424148170489,0.026038734558527413,0.8182704877691156,-0.2921903366051812,0.010850804353072983
0.1444428133774736,-0.2842040612114478,-0.4286468642428296,0.28692557604215374,-0.3570790831130488,0.07026733845032063,-0.4765163991777735,0.014400447144889708,0.02304875273431995,0.8252074993909325,-0.2741788967403979,0.020279012445101392
0.1676847978930092,-0.2667712829303753,-0.434456062185076,0.30488146088091217,-0.35061368187687986,0.05335425472224421,-0.4878103448647829,0.007622036638512234,0.022866110497983837,0.8308019277813067,-0.25914923988494454,0.03811018261011402
0.1803797270193156,-0.25531826381243067,-0.43569797062533827,0.3128188073393185,-0.3451736707542999,0.04240357864908173,-0.5050910244241928,-0.004712113330421142,0.015460577237415257,0.829065218013859,-0.2608825376034297,0.043738239141679555
0.18895833868930348,-0.24007237800176695,-0.42903069979519826,0.3102152446874217,-0.3350526618503741,0.026426095015510794,-0.5158718743447966,-0.010789621648542708,0.02002987895408235,0.8369975269630567,-0.24713791843420724,0.05550416116257812
0.20361233728232464,-0.2236674760986487,-0.42727979368084373,0.3155342813994393,-0.32477483087083714,0.010763978043627708,-0.519968501041454,-0.018937590019951427,0.020646223419905914,0.8476625155472961,-0.23427766682402987,0.0733010767450735
0.2210390619344076,-0.21341701888897685,-0.434456062185076,0.32774757137889604,-0.32012550969515685,-8.294218018910018e-19,-0.5335425658607506,-0.030488146554048925,0.007622036638512234,0.8460460511487851,-0.23628312938696067,0.07622036522022804
0.2340824185506677,-0.20119101129589329,-0.4352734124630689,0.33383605306113995,-0.3135450164602589,-0.012652020811573534,-0.5460572551360212,-0.035302262358464065,0.007221048734752293,0.8444108280079465,-0.22433752020208028,0.08044671488031871
0.2389044055856041,-0.1935689608753172,-0.43247334519271174,0.3385569883645033,-0.3116985698190722,-0.01831967390141171,-0.5520001159465616,-0.048226707059676396,0.0026256016683091224,0.8468117365316606,-0.2214609452836634,0.08985706723792408
0.24793830602237232,-0.18795723927852548,-0.4358955307398159,0.34481085364080355,-0.31190604993197235,-0.02725980631395563,-0.5583542608545637,-0.06610331378800183,-0.011759658674516914,0.8437280997205705,-0.2304147302222267,0.09116920287094779
0.25914923988494454,-0.1829288839838707,-0.4420781238688152,0.35061368187687986,-0.3125034852880345,-0.03811018261011402,-0.5640307007658567,-0.07622036522022804,-0.015244073277024463,0.8384240267416627,-0.22866110497983838,0.09146444199193535
0.25944647315828856,-0.18763086927304914,-0.4470773441015442,0.3564367617382074,-0.3181108776532457,-0.033074360416917144,-0.5645163767373503,-0.08749855324635075,-0.019575074584217207,0.8323633453278801,-0.2325665964187575,0.09273769895006106
0.261824460454951,-0.19389081419831444,-0.4557152724597878,0.361094604655095,-0.32208921363646403,-0.02979285259112736,-0.560790517325273,-0.09664506892154578,-0.028685676815067614,0.8258177088160219,-0.2412093850536022,0.08709427706549948
0.2678142239573164,-0.20142869907201028,-0.46924292616874397,0.36849272044691583,-0.3323056254456899,-0.02922956084948405,-0.5528823912973968,-0.10013528714899723,-0.03013610412384519,0.8211871843494757,-0.2446595875248379,0.0837009611183475
0.25914923988494454,-0.2210390619344076,-0.4801883204576606,0.37347979237486373,-0.35061368187687986,-0.015244073277024466,-0.5411645902678729,-0.10670850944448843,-0.030488146554048932,0.815557878967062,-0.25152719683951374,0.0838423989465046
0.24157294615714284,-0.2439522951837938,-0.4855252647544803,0.36801925183188317,-0.3618198574952552,0.0015889260049798308,-0.5290608791877958,-0.11752330684675191,-0.03610441709399505,0.8038173290714103,-0.26196371316657213,0.07372772027397273
0.2260549518895885,-0.26567455354276004,-0.4917295108929342,0.36207286988627496,-0.375805273209266,0.021365632865391053,-0.5188294683812997,-0.13056740884523774,-0.04156600857493441,0.7920139329916337,-0.27703894330984086,0.059822080916751535
0.20586031763638896,-0.2898782976192623,-0.4957386166210269,0.3549176743762237,-0.3937230194985071,0.04622251209204639,-0.5045087609265765,-0.13860068721869162,-0.048178912326605275,0.780435819092804,-0.2954386622320581,0.05034616665904927
0.1829288839838707,-0.3125034852880345,-0.49543236927190526,0.34299165746975757,-0.4039679645565868,0.06859832683437439,-0.4801883204576606,-0.1371966536687488,-0.05335425472224421,0.7698257325243281,-0.3125034852880345,0.03811018261011402
0.1613432341828887,-0.3339104371193407,-0.49525365281342465,0.3320746924721196,-0.4141364511205631,0.09062503374993854,-0.4549972630799206,-0.14021991519732363,-0.0528965137330177,0.7591636158956204,-0.32874367298763113,0.021648445443333685
0.13068394227242067,-0.36187505176418233,-0.49255899149667076,0.3143501517142889,-0.4278225307105168,0.1169336159126111,-0.4418355819549806,-0.15667833626036087,-0.056690061397337954,0.739754760586036,-0.3492042590363127,0.0010757659539412882
0.09567257986503164,-0.3890482170886682,-0.4847208197201894,0.2889644688846048,-0.43614708639883765,0.14730770428565906,-0.4283155605220173,-0.1710525573337116,-0.06205893576544455,0.716181146829153,-0.3738763592117567,-0.023524767558366126
0.0685983268343744,-0.411589988963709,-0.4801883204576606,0.2743933073374976,-0.4420781238688152,0.17530684093843993,-0.4039679645565868,-0.17530684093843993,-0.060976293108097865,0.7012273637537597,-0.39634590287284754,-0.04573222099596767
0.03669189593926694,-0.4388501802066647,-0.475542071209237,0.260256281398481,-0.4524790361106495,0.2022716611532213,-0.3797020231899934,-0.17995366434630167,-0.060543197403492496,0.6896804085453707,-0.4130984567539995,-0.06273411146994956
-0.0058388425533,-0.4693588393065864,-0.4635200080610634,0.22993562653636473,-0.4652927948895692,0.2369458577133994,-0.3612729451605807,-0.18948733841987905,-0.06107292041969603,0.6751358516795045,-0.4324004885804308,-0.08217169705620272
-0.040585606280138575,-0.4963093942259484,-0.45572379527964935,0.2084906065884402,-0.47546895019796726,0.2685187985767192,-0.34537172280198014,-0.20317032859972078,-0.06157646134567084,0.6558697470628432,-0.4581687423106111,-0.10778062600575768
-0.0685983268343744,-0.5259205414536282,-0.45732220995967676,0.19817295143642377,-0.4878103448647829,0.2972594364737899,-0.3353695957860184,-0.2210390619344076,-0.0685983268343744,0.6402510193903137,-0.4801883204576606,-0.12957461994247227
-0.10295027535000956,-0.5555542530454851,-0.45260397615381576,0.17530673836700403,-0.500029628485567,0.33230037717231015,-0.3250639473507994,-0.23361824572912593,-0.07564784427529761,0.6291126315851492,-0.49615159868138115,-0.1458992597805028
-0.13251613241245155,-0.5760550073898053,-0.44353887796295377,0.15734570517511753,-0.5059441840717088,0.35724038397885594,-0.30755626200696756,-0.24143331188245148,-0.07540893338850016,0.6128656967666464,-0.517855070975203,-0.16737530455942434
-0.15000971799487137,-0.591956295129744,-0.4419465898354683,0.14939501237425737,-0.5136913076406784,0.36984961743551237,-0.2929415203235779,-0.25786686700443356,-0.07783205259655551,0.5970623502758909,-0.5397273782327836,-0.1896883365714842
-0.1676847978930092,-0.6097629217618243,-0.4420781238688152,0.1371966536687488,-0.5259205414536282,0.38872384118910835,-0.28201535038292835,-0.2743933073374976,-0.0838423989465046,0.5868968112638405,-0.5564086763587344,-0.2057949944818545
-0.1903495078635783,-0.6264000171040678,-0.43605046216692067,0.12557941130256667,-0.5319724221181463,0.41179738455249015,-0.2644032055597618,-0.27951933018187497,-0.08391733381632585,0.5748791596087518,-0.5731550972030834,-0.21763558584325962
-0.21159712539375017,-0.6439850273380222,-0.4323878538955428,0.11348206667867947,-0.5361031276132195,0.43152239339168175,-0.2522554707794074,-0.2911416414388548,-0.08597727033368771,0.5642646034684538,-0.5897223826182083,-0.22731344325371533
-0.2244959039086565,-0.6596691022363128,-0.43517319285804,0.10432269532162705,-0.5431330248512649,0.4461421680283574,-0.25100823982271603,-0.31074369771911015,-0.09424440176005343,0.5503172714170116,-0.6082844377520109,-0.24194819092361064
-0.23628312938696067,-0.6707391915720368,-0.434456062185076,0.09908647571821189,-0.5487866146749952,0.45732220995967676,-0.24390517243239146,-0.32012550969515685,-0.09908647571821189,0.5335425658607506,-0.625006970576069,-0.25914923988494454
-0.2536890138668786,-0.681481594056338,-0.42779255114518944,0.08752897641445186,-0.5536776924223376,0.468409107051974,-0.23087095018151366,-0.3245090985460531,-0.09888547782399029,0.5264092862145889,-0.630558208909072,-0.2656613501301255
-0.26727831900649396,-0.6931312025859299,-0.4258528438047108,0.07876176892052089,-0.5603318927514845,0.47974093222731556,-0.22743032326026477,-0.33530780724943676,-0.10125175814397103,0.5204775673233997,-0.6381421564943662,-0.27143562849605346
-0.27811377160808093,-0.7046011122044045,-0.42648733763623414,0.0744986824282339,-0.5649642431401464,0.49150602283343536,-0.22794809795824,-0.34553027134025255,-0.10969790049904418,0.5044011889699267,-0.6520839529476783,-0.28773261713757947
-0.2896373934283591,-0.7164714125680044,-0.4268340377779537,0.0685983268343744,-0.571652725172979,0.5030543936790275,-0.2210390619344076,-0.35061368187687986,-0.11433055248991919,0.49543236927190526,-0.6631171671649144,-0.2972594364737899
-0.3004537311389977,-0.7274330794897144,-0.42697932523791254,0.06282309523741234,-0.5782357232663008,0.5140224217594154,-0.21358660541700425,-0.3556345517687768,-0.11303970722178347,0.4961203291938468,-0.6688916686289772,-0.29590315679213075
-0.3118383661215294,-0.7369123498860275,-0.4250739370550132,0.05838886268837737,-0.5779272376583416,0.5240132665101598,-0.21584514950439834,-0.3625605958290433,-0.12096663426081822,0.48810940058361474,-0.6730169686066232,-0.3039487008201152
-0.3099361113893411,-0.7384385847854167,-0.42850244066893717,0.06375534478902853,-0.580695447219751,0.5249271962041516,-0.22267421736899673,-0.3662535131052036,-0.13207141359618121,0.4772671307648084,-0.6807881610178113,-0.3146522382281257
-0.30488146088091217,-0.7393375603426051,-0.434456062185076,0.0685983268343744,-0.5868968112638405,0.5259205414536282,-0.2210390619344076,-0.3658577679677414,-0.12957461994247227,0.4801883204576606,-0.6859833149395151,-0.3125034852880345
-0.3114220980979215,-0.7450880999775349,-0.43366595972353733,0.06191442014457194,-0.5860882093294213,0.532585899333191,-0.21369453295843976,-0.36499749031331996,-0.12689461249992148,0.4821506673975523,-0.6842680046392674,-0.3105799004249677
-0.3087228522698011,-0.7463396093381922,-0.43761673789390226,0.06377853627080673,-0.5898551265550473,0.5296591019612209,-0.2162222362909716,-0.3686016214364876,-0.13795174796792692,0.4716748952992381,-0.69222544322478,-0.31691307193070456
-0.30515894303139185,-0.7476385751705982,-0.4424796379430245,0.06943035748658952,-0.5948733624726623,0.5255418136447767,-0.22206446757840892,-0.37500161746426847,-0.14599250795264596,0.46274256725483354,-0.7031159032396603,-0.3203065997709642
-0.3125034852880345,-0.7545816091568497,-0.4420781238688152,0.0685983268343744,-0.5945188729475798,0.5335425658607506,-0.2210390619344076,-0.37347979237486373,-0.14481869671417955,0.4649442343667991,-0.7012273637537597,-0.32012550969515685
-0.3079227287192179,-0.7546177436891405,-0.4466950077355122,0.07396878317452929,-0.5989919413523221,0.5349702380928212,-0.22030974690742114,-0.3660709718137272,-0.14466027720792277,0.4660342265627249,-0.6988759822573953,-0.3200756877138188
-0.3017481427013666,-0.755383316877068,-0.45363519897900983,0.07738987009163459,-0.6059866317397582,0.5304430313004207,-0.22144806830712652,-0.36857519235308916,-0.14415633346698598,0.45997855528839393,-0.7055036524055737,-0.3191531877771149
-0.306315802017774,-0.7650916763455218,-0.45877590395737844,0.07646128943111641,-0.6110665823559911,0.5358582108746283,-0.22041913181474349,-0.37440547761602483,-0.14613012318365287,0.4564854529256945,-0.7084254256829086,-0.3212646403271308
-0.30488146088091217,-0.7698257325243281,-0.4649442343667991,0.0838423989465046,-0.6173849834455636,0.5411645902678729,-0.2210390619344076,-0.37347979237486373,-0.15244073044045608,0.45732220995967676,-0.708849388160882,-0.32774757137889604
-0.30263768494507326,-0.7680779690454914,-0.4654402274675152,0.08625277180541562,-0.6178360191721572,0.5398270979941961,-0.2214681423260797,-0.37275195741175854,-0.15310740042275328,0.456716482475369,-0.7091476494006642,-0.3286524710551224
-0.3102799368575192,-0.7737423399810307,-0.463462418275464,0.07767343290756978,-0.6156103183570846,0.5450569338240202,-0.21954268153781054,-0.3735707183031156,-0.15154259989459437,0.45772089243985103,-0.7061506540661916,-0.3256372702486881
-0.31080244255345957,-0.7762400683183401,-0.46543765343361687,0.07783219909070964,-0.6178995481468861,0.5478794303482352,-0.22271830513063934,-0.3729622810288151,-0.15275178011849652,0.4553324701871486,-0.7111003603332997,-0.32964346110492715
-0.30488146088091217,-0.7698257325243281,-0.4649442343667991,0.0838423989465046,-0.6173849834455636,0.5411645902678729,-0.22866110497983838,-0.37347979237486373,-0.15244073044045608,0.4497001482759375,-0.7164714125680044,-0.3353695957860184
-0.30951436065580606,-0.7681090228675498,-0.45859461590126266,0.07880192267577522,-0.6106450731233792,0.5395063572791903,-0.22883412742266002,-0.3733757115912145,-0.15203262863305558,0.44881818528529793,-0.7092200339672948,-0.33521738777826776
-0.3145221732889584,-0.7703784706077219,-0.4558562701205098,0.07396489692044156,-0.6087112272074638,0.5420938422590342,-0.22834999662546515,-0.3728789093127939,-0.15273444122962831,0.44958408387924964,-0.7113440202462357,-0.33535205194904716
-0.3108117685347879,-0.7683000708012435,-0.4574882577433822,0.07752222681835655,-0.6091631378893757,0.5396751151194678,-0.22825592447194606,-0.3733750419744959,-0.15191502535139398,0.449276897394115,-0.716491677694848,-0.3345476090931757
-0.3125034852880345,-0.7698257325243281,-0.45732220995967676,0.07622036522022804,-0.6097629217618243,0.5411645902678729,-0.22866110497983838,-0.37347979237486373,-0.15244073044045608,0.4497001482759375,-0.7164714125680044,-0.3353695957860184
-0.3187501917785588,-0.7753136004189749,-0.45656342784513493,0.06981933843709227,-0.6149649629864452,0.5470140906907072,-0.23408069288701477,-0.37297110531803146,-0.15783130342977988,0.44903581758171585,-0.7224165296677785,-0.34133183845663706
-0.32014628962623903,-0.7776999460674809,-0.45755370880216006,0.0679528486828396,-0.6182163829381043,0.548884207262579,-0.23767403998962014,-0.37354525356239443,-0.16188676636826954,0.45016400456264827,-0.7204772744650934,-0.3428849750334122
-0.31992581645202417,-0.7763102675990091,-0.45638447818672656,0.06872209629632385,-0.6161559384343227,0.5481933845093291,-0.2351419842579754,-0.3727879976429733,-0.15847712632058003,0.44768517270675984,-0.7156916525880206,-0.34380972361512857
