-1.710357,-0.12245086,0.82010907,0.4516224,0.62912774,-0.16831237,0.42543375,0.7201817,-0.21456346,0.39153358,-0.6016045,0.163067
0.7381344,-0.22975503,2.3131392,-1.0715145,-0.38048172,0.2704366,0.21024269,-0.33790842,-0.679512,-0.1789142,1.755851,0.52090394
-0.068920344,1.6473236,0.37295428,1.0259548,1.0860233,0.56558025,-1.2977523,1.9821708,0.6229922,0.04687645,0.45649645,-1.3677598
-0.5656309,-0.037056558,1.2563962,-0.061263137,0.73420095,0.74748904,-2.5758398,-0.3738041,-1.3046433,0.8306114,0.27177474,0.2441401
-0.029500289,-0.9490738,0.45881343,1.9944977,-1.111434,-0.91038525,-1.7084138,-0.29514024,-0.4073558,1.3050265,-0.40974644,-0.7457665
-0.6980904,0.50312126,-0.33800167,-0.6572603,-0.061095078,0.19102918,0.7153468,0.13361686,0.032592535,-0.60965407,0.85086495,-0.009478536
-0.035480864,-0.7474039,-0.36244854,0.5626175,-0.35014415,0.41345417,0.90290534,-0.16436805,0.65216863,-1.240565,1.0292058,-1.5660435
0.9156619,-1.0548006,1.2696935,0.4609351,-0.75416815,-1.2986147,0.942621,-0.5498417,-0.236019,0.30893457,-0.9334398,-0.10646636
-0.27371848,-0.10973104,-0.29695624,-0.6756961,1.0498828,0.11557439,1.5023148,0.32623318,-0.034721117,-0.7928664,-1.3817022,-1.0804328
1.094878,0.6153241,-0.49243113,-0.29965478,1.2600579,1.2374336,-1.3568137,1.1873306,-0.85042363,-1.29486,1.9490492,-1.3791732
-0.8785925,0.9215487,-0.61745685,0.73980683,-0.5379998,-2.3791091,1.050213,-1.313205,0.8533981,0.26581442,0.99790496,-0.63373244
0.0263263,1.911429,-1.5564849,-1.6953415,1.6191119,1.3628697,0.19050755,0.77451795,-1.3404655,-1.0958829,1.2339702,2.1884074
-1.3170847,-0.4843016,1.6135565,-1.839418,-0.41579223,0.6228706,1.9681289,-0.8242728,-0.19968073,0.66345704,-2.1066966,0.03888872
1.0817859,0.64879274,2.1355703,-0.6704888,-0.12884006,-1.0459824,0.13961542,-0.36208832,-0.40993774,-1.187387,0.6791206,-0.45928338
-0.63930815,2.3747518,-1.1277322,0.93179965,-0.6001674,-1.578377,-0.44915214,0.47158045,-0.5543827,0.9943645,-0.001112276,-0.33207616
-0.79222625,0.1326899,0.22616872,-1.5204096,-0.3289274,1.1265454,-1.3842499,0.6132742,0.9904285,-0.86111027,0.69445753,-0.72905856
0.03198718,-0.52429825,-0.880303,-0.081583254,-1.9962533,-1.1072955,-1.0466279,-0.15211488,-0.12184557,-0.9790266,0.5423099,-0.7788631
0.992799,1.3440199,-0.6346671,-0.1577389,-0.81566733,-1.978523,0.016194114,-1.9586161,0.6159619,-1.5380569,0.31090334,0.06571028
-0.55264306,-0.27425504,1.6825627,0.6069119,-0.777749,-0.249842,-0.5622456,0.64308023,0.20084618,0.5471093,-0.50747395,-0.1074897
0.4541684,1.2048498,1.2324587,0.5568057,0.97869176,0.33989036,-0.011030643,-0.30076554,-1.517127,0.50577027,-0.36605,1.1164932
-0.053700686,0.045920674,1.5125084,0.8151409,-0.2602589,-0.48928,-1.9271264,-1.3483583,1.7997373,-1.0471333,0.6420864,-0.13388647
0.40238345,-0.3951212,-0.8576041,-2.0275373,-0.32013923,0.30629516,0.32678238,-1.9721643,1.6306224,-0.20025972,0.6737259,0.18592198
-0.93099385,-0.85591656,0.24151997,0.80913323,0.6061319,0.38143262,-1.4609683,-0.7963434,-0.65165395,0.60502815,-0.4432411,-1.0373718
-0.9300441,0.0866489,0.18605383,0.94485885,-1.3216107,1.4720592,0.7238708,-0.029322894,2.0517755,0.7923917,-0.17998958,0.98232615
-0.40263036,-0.7917125,-0.4241306,-2.5721736,2.3386393,-1.8744395,-1.8767802,0.2738585,-0.448476,-1.4605039,-0.071121894,-2.7745826
-0.053831242,0.9410008,0.10484465,-0.50188553,-0.08352746,0.47659478,0.059782907,-1.4910975,0.7936693,0.12763211,-0.30853254,0.23735863
0.87673587,-1.0015391,0.19585527,2.5515225,1.3752536,0.10570348,-1.6839933,0.6876287,1.5349268,-0.4233032,-0.19654998,0.14066575
1.4928721,-1.8181129,0.9748133,-0.035717074,-0.5825296,-0.15241267,-1.3810569,-1.6642495,-0.62033087,-0.020456567,-0.15668286,-1.2358481
0.49390647,2.3011527,-1.0773787,0.39399377,0.5306553,0.73024976,0.015841264,-0.50776875,-0.13248909,0.00054003194,-1.6195003,-0.17450842
-1.3636366,-0.5319355,-2.5659816,-0.6023022,-1.1399832,2.0141516,-1.7850201,0.4950514,-1.0574841,-0.8176505,1.5364841,0.30436945
-0.5233818,0.2261555,1.0208521,0.1798017,1.3975812,-0.2629691,0.38003474,-0.022943912,-0.3383825,-0.7454189,-0.14644119,-0.45552242
0.65938777,1.2421532,1.87826,1.0494016,-0.81239676,-0.3872198,-0.37604293,1.350303,0.37419516,0.06062577,0.7062519,-0.21731286
0.6883853,-0.23676951,0.7319083,-1.1408328,-0.8157145,0.7069069,0.07974975,-0.8175938,-0.0060761836,-0.9439187,-0.64697284,0.16761844
0.51780087,0.42472488,1.2207322,1.5434583,0.44975385,-0.0281989,-0.32875073,1.0261286,-2.9025989,1.6319091,-0.67245305,1.1558074
-0.837881,0.35511446,-0.46448293,0.847561,-2.0960135,-0.81674045,-1.0403275,0.18118937,1.0801536,-1.8208764,-0.5425053,-1.2650511
-0.45370668,0.0655268,0.28119016,1.3412749,1.4710817,0.2947146,-0.54124993,-1.553744,-0.438319,0.33130246,-0.48767766,0.27414528
-0.74805164,0.52408,0.77912843,0.5567433,1.1271877,-0.068490535,-0.03254082,1.1584082,0.73427755,-0.3567266,-0.98591506,0.3978858
0.17960924,-1.7984824,0.37432194,1.5614246,-1.8744843,0.38577622,1.034079,-0.68817466,-1.3662496,0.13153535,-2.3076515,-0.027458478
1.8576708,-0.69489986,0.103174955,1.0410568,-1.105776,-0.20176421,0.04374671,0.1839219,0.6120025,-0.58921355,-1.48509,0.03810567
0.26112902,-1.2405411,0.67929786,-0.45080447,-0.64991367,-0.5983447,-0.44717506,2.1634648,-0.89979076,-1.365243,-0.07938373,-0.09768054
-0.4444786,-0.936586,0.32111183,1.3045955,-1.3137944,1.968121,-0.6849028,0.09455655,-1.643765,-1.4972965,-1.1255152,1.2796434
1.6505846,-0.52138364,1.5891663,-1.1988639,-0.6324994,-1.5490414,-1.1324754,0.5286816,1.7462995,-0.21422014,-0.62871355,2.124322
-0.52027506,-0.39459255,0.6711448,0.92511487,1.2465141,-0.5775133,-1.6209885,0.32737282,-1.3198782,0.11754597,0.98985684,1.3883187
0.92381126,-1.2525661,0.94879127,0.19035195,-0.81516737,0.32137927,0.72447795,0.8063787,-0.07043652,1.3498248,-1.3823097,1.433602
0.890308,-1.7526776,0.67081934,0.053821992,0.037267797,-0.12545875,-0.41958666,-1.1043996,-0.3273571,-0.84701157,0.00093705585,-0.06857977
0.29333454,0.36037487,-1.0473104,-0.40702268,-1.3943046,-0.53177464,-1.0198587,1.4324872,-1.0674158,0.49587482,-0.4856845,-2.4623861
0.2503548,0.44434783,0.19433281,0.7639899,-1.3363352,0.4510377,1.0258442,0.19236009,-1.0419075,-0.25570247,1.3578739,1.1309078
0.8295489,-0.80002236,0.7584807,-1.3798674,1.0680032,-0.30966315,-0.5040401,0.25014266,-0.067372605,-0.500932,0.4479378,-0.38785616
0.3948062,1.0459425,-0.7971013,-0.39297098,-0.6888676,-1.2202954,-0.4072744,1.1833915,-0.008460444,-0.33940312,0.7430989,-0.37126788
0.68165344,0.9329842,1.2954639,1.0679264,0.31166762,-0.1529445,0.46491596,-0.24128579,-0.6359346,-0.6878736,-0.24020836,2.0152504
-1.401086,0.074169554,-0.5969526,0.3588452,-0.25174147,-2.228133,-1.3219761,-0.8094636,-0.5448004,-1.0120361,-0.12552455,-0.9977522
1.9167812,-0.62994784,0.87398213,0.49059266,-0.26655126,1.5740461,-2.3601844,0.7725238,0.06707839,0.39722666,1.4206989,1.0157791
-0.4794238,-0.5227342,0.91469866,-0.68382347,-1.3774315,0.49809194,0.27555773,-0.76526,1.1369199,-2.1670892,1.5783112,0.07330943
0.022642428,-1.2202828,-0.3981547,-0.038441923,0.009932044,1.876687,1.2760742,1.4669944,0.09413683,0.43160653,-0.7263826,0.41932598
-0.5388343,-0.7535456,0.8928041,-0.89967376,0.1556647,0.2587312,0.04788605,0.77213955,-0.45838255,1.4277275,0.9480158,-2.0267835
0.8431768,-0.39574915,-0.9015384,-0.84572834,-0.5264467,0.44406226,-0.82355034,0.8966694,1.3585771,2.1608455,1.0328856,0.09862948
0.10517163,0.6362388,-0.24328671,-0.17546266,-0.3655701,0.7580421,1.1084205,0.408253,-0.09140572,-0.44972488,-1.7427876,-1.3662267
-0.9746009,0.093746535,-0.008687517,0.8540354,1.5846336,1.0462286,1.7654637,-1.1638986,-1.1277225,0.7903968,0.306278,-1.1902809
-1.3924308,-0.57400143,-0.951901,-0.59849674,-1.0216442,0.0660663,-1.7096007,-0.294667,-0.09205925,-0.87988096,-1.7293253,0.17022668
1.0105699,-0.08647517,0.6529656,-0.09196955,0.98138595,-0.102110974,-2.8725376,-0.36054316,1.1909053,-0.03747124,-1.5177628,-1.0641962
-0.6019556,0.1499788,1.4438187,0.8810377,-0.21168545,0.46242043,1.6326935,0.11155188,2.367993,-0.31833437,-0.5619206,1.4804816
2.533264,1.7381436,0.18943168,0.44269407,0.5654999,-1.0549531,1.9702504,-0.12893899,-0.98555434,-1.2994385,0.98998076,0.49556097
-1.8081977,0.32392764,-1.4302624,-0.358254,0.76567894,0.23357107,-0.17959541,1.0314792,-0.030256854,0.22839801,-2.0566375,-1.1614897
0.3663156,0.84052134,-0.0024042123,0.78718203,-0.0959267,-0.6364644,0.42167732,0.17678557,-0.028867826,-0.6270852,1.0255735,-0.82679147
-0.16272363,0.58414865,-0.72283494,0.5336474,0.08530772,0.89330536,-2.3309171,1.9107965,0.55806196,2.7669895,-0.78653663,0.58903146
0.3583812,0.07042667,1.0276035,-1.140659,-2.1484954,0.27038193,-0.6872339,0.38708884,-0.7666471,-0.6168271,-0.6749809,0.31129494
0.1691678,0.015301392,2.25966,0.9727925,1.3083551,-0.45631403,0.31346932,2.6825898,-1.6713494,0.5525644,1.1079453,-0.46900696
-1.4146962,0.2291768,0.31759506,-0.88853294,-0.99431276,-0.47223067,-0.5862976,0.94085556,-0.7672042,-0.33849058,0.35501847,-0.5796469
-0.36057493,-2.3976984,-1.3380187,-0.0060623004,-0.46177858,-0.8914721,-0.11178159,-2.2417583,-0.8424416,0.023828862,2.4250472,-0.7851664
-0.44511476,2.0942223,0.012965963,-1.3065727,0.6303125,-0.73809433,-1.408955,-0.0033099647,0.9037281,0.6192621,1.1654761,0.0022741468
-0.53639865,2.1678848,2.718927,0.22075164,-1.3353771,0.012026665,0.00987571,-2.0295172,-0.40248236,-0.58123404,0.4566046,0.066498294
1.1357815,-0.84150225,-0.025071112,-1.312009,1.2122447,0.23951636,0.16048169,0.18527454,-0.60464346,0.022914482,-1.1850721,0.20756942
1.6136403,0.69421357,-0.8617707,0.64033496,0.6041099,1.2276814,-0.7245343,-0.07971961,-0.11864251,-1.2566805,-0.31066844,-0.35420564
1.2461832,1.1525171,-1.6695765,-1.3409404,0.8131055,-0.29816917,-0.743991,0.3063352,-0.7394851,-1.144151,-0.992279,0.39522642
-0.65317386,0.114152014,1.5481391,-1.13201,-1.0248718,-1.3217945,-0.6690118,-0.21240932,-2.018495,0.18710458,0.26896086,-0.16662821
-0.72264576,-2.9505155,1.4685467,-2.0758204,-1.2174219,0.2814234,0.75964814,-1.4570781,1.0578569,0.09941527,-0.46390462,0.5454532
-0.10076162,1.9778187,0.08601829,0.58247906,0.71386325,0.91992325,-1.6857454,0.6124853,-0.036615662,1.8353174,0.4855505,-1.3112855
1.8409145,-0.6289718,-0.3679422,-0.6964302,1.9071358,-0.8609347,-1.2551262,-1.4601107,1.2974145,-0.601377,-1.8133159,0.77628636
0.10838523,-1.4026635,0.033306416,0.16237515,0.7618228,0.15467258,1.5225192,0.61561203,-0.85147625,-0.53604394,0.8161724,0.0823285
-0.04346527,-0.8126618,-0.7901321,-0.3686958,-0.019322619,-0.6188127,1.2835383,-0.8771683,0.2157487,0.056112763,1.2909706,-0.10773283
-0.45789772,1.4097264,-1.0144874,-0.6782275,-0.3780277,0.8834963,-0.3268404,0.6085419,0.20681179,-1.2723051,0.4665704,-0.34329692
-0.28186807,1.7882246,1.0134665,0.7952835,-0.9430293,0.32692605,1.1874403,-0.1309167,1.2431476,-0.52356106,-0.30700785,-0.14063151
0.06709904,-1.4076787,-0.39470395,0.32120526,0.17890982,0.0069503784,0.3829748,0.9024236,-0.124874964,1.6977265,0.56438845,1.6123322
-0.20028533,0.19398598,-1.4544992,-1.0808948,0.56688625,-0.6570933,0.83774585,-0.44913986,0.45135894,-1.6918396,0.015285995,0.78233045
-0.38676685,-0.89797276,-0.27365828,-0.69523007,0.32876262,0.51156056,0.28270033,-0.8653947,0.1321375,0.359979,0.06984509,0.8354164
1.9558574,0.21801206,0.4878296,-0.56637645,0.79546654,-0.9110214,1.0334537,-0.443296,0.9644222,0.1834854,-0.6846758,-0.03292126
-0.29764578,-0.5833386,0.57186055,-0.036724094,-0.09090427,0.6371772,-2.2331595,0.49010205,0.8529279,-0.4546928,0.67734283,0.19024143
-0.49231884,0.4881287,0.69692284,0.5825096,-1.7669233,0.21387728,1.4090446,-1.0473499,1.3791523,-0.74140805,-0.52267,-0.22112493
0.2242315,-2.8848214,-0.8066958,-0.93531287,-1.1683733,2.4524384,0.1571488,1.7785406,-0.8015667,-0.0028582255,0.64101905,0.9924984
1.0665715,0.8412865,0.39425036,0.13978975,-1.5752398,0.2985027,0.51576793,1.2397122,0.4393289,-0.10427332,-1.7976961,-0.24321464
0.06865882,-1.2235669,-1.1845607,-0.42638075,-0.63172543,0.8812489,0.42169228,-1.1175705,-0.23149525,1.458977,1.5507188,-0.4930643
1.5072494,-0.39820233,-1.0174924,0.33917534,-1.5090661,-1.5702308,-0.97367984,-0.21887317,1.2075626,-0.9089231,0.19962616,0.37018278
-2.95656,-0.4470984,0.20362629,0.30299497,-1.8589596,-0.48832116,0.25597757,-1.6680005,0.61422104,-0.62829345,1.285361,-0.5546816
0.4566952,-1.200157,1.038484,0.47555095,-1.387817,-1.0254892,0.056739397,0.6968329,-2.4516754,-0.5296581,0.14962576,2.2679698
-0.5362396,0.61135286,-0.8209472,0.6338576,0.15668921,0.29104564,-0.0037285953,-0.93707323,1.4013084,0.3020985,0.49984634,-1.0127558
-2.2748213,-0.7994648,2.8797581,-0.1545839,-0.50377816,-0.061001167,-0.5130628,0.21223864,0.38072667,-0.16051787,-0.85009897,0.24716073
0.36450407,-1.3447276,0.019474104,-2.124291,-1.0068192,-1.5143787,0.57859725,0.92160934,0.36388865,-0.86308426,-1.0967568,-2.2945232
-1.1420435,-0.70724916,-1.919598,-0.38391572,-0.048653133,0.21373847,1.6042567,-1.2879672,-0.8946789,-0.2896937,1.0429448,-0.14239033
0.37383556,-0.2570079,-2.3031604,1.0265164,0.07522734,2.1809509,2.0688047,-1.1418351,-1.4185684,-0.018810786,0.37272713,-0.8087468
-1.1248171,-2.4344566,0.16861832,0.4920872,1.0419148,-0.37414292,1.4549177,0.2549051,1.5130599,0.75745696,0.1254338,0.22491524
0.090448804,-1.159255,0.24781467,0.2921791,1.3108038,-0.52807593,-1.2275379,-1.9162232,-1.9409912,-0.6460166,0.28736764,0.23395795
-0.7216002,1.5683637,0.45413995,1.670478,-0.49777514,-0.8796576,0.81771326,-1.027809,1.6283443,-0.64811504,-0.4955332,-1.3408974
-2.0834837,-0.6859983,0.6455917,-0.0105511565,-0.6906669,-1.1573188,1.0356381,0.37519205,0.07961978,-0.5483982,0.20288081,0.6169349
1.1321907,1.2043424,-0.59366065,-0.16265897,-0.40021315,-0.41573444,-0.9019108,-2.0326004,-1.7207706,0.15624535,-0.38516492,-0.8055267
0.94546545,1.1664752,-0.17848025,-1.243529,-0.51109105,0.86521214,-2.6005845,-1.95626,2.961951,-0.3798811,0.79219437,0.078100264
0.79331315,1.2215753,0.14066133,0.29937428,-1.4609398,0.25494117,-0.6166344,1.1572709,-1.1090765,-1.7807151,0.22441097,0.30405098
-0.9492188,-0.37019104,-1.1253376,0.19742242,0.45745042,-1.4887645,-0.50234526,0.86438453,0.5715126,-0.30507842,0.3774398,1.0455598
-0.45729938,0.66914845,0.3195946,0.67776453,-0.86970454,0.8594966,2.5023255,1.3660442,0.17277059,0.10372264,1.3857952,-0.14647865
1.9240937,-1.0064545,-0.87960035,-2.2159154,-0.43370584,-1.0131966,0.21527965,0.82852745,-0.63488793,-0.13188882,-0.10845424,-2.9137917
0.13614894,0.19220655,-1.0712959,-0.76549846,-0.43354464,1.7533839,-0.6826521,-1.1320041,0.2666138,0.8916892,-1.9611793,0.59906644
0.046354853,0.28175023,1.4036832,-2.3760786,1.561077,-2.2303991,-0.96958125,1.2004046,-1.5900203,-0.2968526,-0.388313,0.07754305
3.2872257,1.5480183,-0.90210915,2.63074,1.1134373,-1.1284176,-0.004466879,0.10939422,-0.27881277,-0.00990153,0.25519285,0.29329714
0.46150067,-0.9357507,-0.22405322,-0.73149323,-0.20664151,0.30704996,-1.1573352,-0.24194185,1.3058175,-0.82994246,-1.2888347,1.0019263
0.6302843,-0.00069006777,-0.010088123,1.2346007,0.8715052,-0.35202593,-0.37794796,1.2890122,-1.5285696,-0.6262619,-1.0682172,1.7121195
0.23238663,1.4113237,-0.45836923,-0.39087737,0.7391194,-1.2218531,0.5423887,2.2459621,-0.36150488,0.3112183,-0.48451757,0.17392273
-0.8688135,0.72877526,0.6308509,0.61461383,0.6063436,0.8096788,1.5372074,0.33152077,-1.5634238,-0.26214728,-0.5452247,-1.4282681
1.2100745,1.0776136,-0.97058964,0.99454945,2.248957,-0.13022165,-0.54805946,0.23649916,-0.6874154,0.14667578,-2.3033276,2.4525895
-0.5849998,1.0898019,0.087064564,-0.19799247,0.7415491,0.14282073,-0.63678527,-0.26366583,-0.2694498,-0.62269974,-0.3373424,-0.48285443
-1.5079144,-1.3779919,0.7008943,-1.2012748,-1.1210601,0.029618517,0.17293651,-0.34799558,0.94398993,0.8135594,0.58017427,1.2557572
1.7065284,1.9650729,1.2323703,1.4067086,-0.17533068,0.09407155,0.57922024,-2.0040307,-0.73733443,-0.08951762,1.0380888,0.27596936
0.53453386,-1.2755548,0.23143648,-0.86775756,-0.018297365,0.13580716,-0.21164657,0.06782835,1.4992098,0.38264555,0.454249,1.269491
-1.4543391,-0.56303746,0.03881847,0.46521166,0.52060586,0.5133005,0.043300916,1.8064333,0.58359015,0.7174803,-0.2807737,-1.2801841
-1.1903595,-0.7282245,-1.0222657,0.29648957,-0.0185292,1.2415197,-0.17790505,-0.6214558,0.1348332,-0.0031873584,-0.17837036,-0.0050768014
0.12800984,0.8475699,2.072359,0.17475991,-0.9499137,0.9815275,0.27522528,0.6420492,0.45363417,1.0190606,1.044278,-0.47009778
0.92563814,0.10996495,-0.61345387,-0.014591791,0.120205075,-0.16531208,-0.1583615,-0.98183316,-0.64593005,0.32370475,-0.63089824,0.82542884
0.09979711,0.27156487,1.2902327,0.39057642,-2.2911623,0.8684393,-0.19350496,1.4824933,0.1984022,0.46563303,-2.0846856,-0.61799484
-2.3320956,-0.7947165,-0.20675117,1.2371055,-1.3370771,-0.007299091,-0.8077535,0.20791306,1.2825122,-0.07947845,0.25195062,0.30096427
1.2332319,-0.06276285,-0.97271013,-0.73383695,0.17602542,-0.84141606,0.64686704,-0.95967746,0.649115,-0.048338953,0.77931863,0.28589883
0.5374499,-0.01962421,-0.21262527,-0.9047098,-1.7132881,1.2815474,2.360727,-0.15683429,0.6330324,-0.73378783,-0.9832652,-0.52401894
-2.7733238,0.025805779,-0.13577007,2.4990766,0.48817953,0.35855612,0.63031465,1.6184814,-0.44681355,-1.0012839,-0.3326389,0.93375516
1.0547264,-0.20190802,-0.47949493,1.6382079,0.7100987,-0.1697545,1.0127746,0.07499159,1.4208716,-0.767514,0.6257818,1.3892175
-1.3200794,1.1142151,2.7039392,-0.25222778,-1.9809203,-1.2074598,-0.21526027,1.0597045,0.5356025,0.18445374,0.7759294,0.98226625
-0.92620784,0.075155064,-0.5946093,1.2093059,1.3138866,-1.2305032,0.663419,-0.2746614,-0.8033137,-0.26318362,0.004273483,-0.41027302
0.6652273,-0.7249516,0.90072125,1.7667112,-1.1053468,1.778022,0.4753863,-1.3087629,0.51227236,0.9106287,0.8437893,-0.9890062
1.2054592,0.37529504,-0.25854132,-0.65925926,-1.7077357,-0.7462815,-0.91101986,0.4534234,-0.24087338,0.3210139,-1.6151516,-1.3472091
0.95222163,-0.038736895,2.561789,-0.7733182,1.0127773,0.21251154,1.9084395,0.11978327,0.960566,-0.8248612,-0.4913518,0.82562816
1.5142897,0.3869938,0.0036722585,1.045093,0.2540727,-0.29242972,-1.1813115,0.4938025,-1.0108492,0.37090242,-1.6245327,0.29503524
-0.68291706,-0.34244946,1.4688697,0.6386796,-0.8643885,-0.57001334,-2.2904916,0.52839744,0.6425814,-0.86791825,0.8302134,0.03285463
0.16551006,-0.013829028,1.481905,-0.5600262,1.5788352,0.48851398,-0.10177348,-0.62393266,-1.0171499,0.6799809,-0.28548956,-0.88202244
-0.13816927,-0.060816266,1.3879493,-0.3388451,2.0251222,1.897982,-0.9741685,0.3537299,1.4748402,1.3541228,0.5745978,-1.6372418
0.5967204,-0.31870428,-0.92111176,-1.2136647,1.869196,-0.5855538,0.6452565,-0.16465963,-1.4489698,1.8726319,0.7252267,1.2310523
-0.6263778,-1.2778877,0.5042958,0.2204433,-0.17046627,0.6618223,-1.3212878,-0.3904445,-0.47853667,0.17671959,2.0501342,0.7279154
-1.7830108,-0.95992804,0.124672025,0.16527972,-2.3701694,0.4676449,-0.9504499,1.0691597,2.4446223,0.3693407,-1.8065033,-0.50995857
-2.1330168,-0.06612885,-0.386941,-1.2894851,-0.34223703,-1.5110317,0.024126593,-0.39348173,0.94947916,0.0699502,-1.5194694,-0.25638774
2.837113,-0.21578932,0.2663212,0.33607578,-1.5836558,-1.6003815,-1.1103276,0.34490797,-0.77508384,0.71844685,0.036973555,-0.043696553
0.8928241,0.957187,-0.86270505,-0.10797028,-0.16627525,-1.0701948,-0.49315134,2.0147128,-0.0005460589,0.2000572,-1.4005569,1.0817567
0.057066422,-0.3721737,0.190304,1.2193035,-0.32870695,-0.35310745,0.8287111,-1.3067523,0.4788556,0.50218844,0.40619823,-0.32620326
-0.22375683,0.9760764,-1.3342713,-2.8119814,0.37256703,0.6249785,0.8513634,0.3085966,-0.70140046,1.1440746,0.29867348,-0.9874624
2.5358222,-0.8986244,0.96091086,-0.24186893,0.39685082,0.19432098,0.53797513,-1.0565804,-2.1435895,-1.8821288,-0.23355666,1.023112
1.183625,0.91916555,0.32363433,0.17922792,0.77778137,0.02676895,-0.8739528,2.257734,-0.5363948,-0.38165185,1.0321338,-0.48613223
-1.7259173,1.5893261,-0.2432018,0.8313109,-0.37314594,-0.77392566,-0.48722363,-0.9137268,1.2284654,1.0747919,-0.39442775,-0.8145987
-0.044035602,0.1311257,1.5840762,1.9437835,1.7382755,-2.1647913,-0.78648704,0.6962832,-1.4835886,0.3991613,0.88994086,-0.36952075
-1.6213105,0.6286536,-1.9440242,1.4514694,1.2667369,-0.19263195,-0.8838441,-0.73147523,-1.2667946,0.7810243,0.010903523,0.46600807
-0.15578747,1.3394134,-0.93004197,-0.9643515,2.040484,-0.0616468,0.3027738,-0.23728144,-0.10957644,-1.7917341,-0.012560658,0.4493913
0.115255184,-2.4645329,0.048313655,-0.75046474,-0.15075508,-0.41713446,-0.25131983,0.23323761,0.46571124,-0.39065665,0.23390369,0.7354734
1.008925,-0.34778315,2.2490432,-1.5244185,-0.3555771,-0.99167687,-0.50383586,0.71724135,0.07630677,-1.2630947,0.05552708,1.3944912
-1.3550526,-1.132124,0.62780565,-1.5675132,0.17814717,0.4647164,1.4512528,-1.3183095,2.7397351,-0.0072722714,-0.592921,-1.2756758
1.3897557,0.95177233,0.25688156,1.2578999,-0.9106022,0.9318061,-0.11184281,-0.69967705,-0.5294228,0.8315516,0.4799324,-0.89896166
-0.17108802,-0.15635484,-1.1690203,-0.17479798,1.9112273,-0.4982454,-1.7494185,-0.8517414,-1.1707395,0.63517374,-0.24964343,1.4126115
1.3649477,0.6418766,-1.2840008,0.5911269,-0.3217476,-0.77876717,0.7103589,0.43147403,0.6837234,0.8595973,-0.99463004,2.1282609
-0.53536034,-1.5923123,0.2557481,-1.1637807,-0.6606388,-0.27875838,-0.14703739,-1.1394073,-1.3915614,-2.0947287,0.60282975,0.2123867
0.037573494,-1.2617882,0.6341015,0.23175949,-0.32830197,0.23219782,0.5213694,0.8373883,-0.79435897,-0.3311128,0.23147708,0.9949686
-0.074191816,2.6280067,-0.2557393,-1.4239907,-0.7200786,0.22994477,-1.2534802,-0.078863524,-2.1844974,1.474249,-0.30785117,0.3004497
1.2966897,0.5924366,1.0305493,1.3765326,0.72638667,-0.82266897,-0.16647363,-0.10378009,1.1927696,1.2459079,1.1451814,-0.3566987
-0.44292444,0.71148884,0.29613397,0.3312973,-1.5596977,1.180751,0.26095757,0.5289443,-0.3666063,-0.6970472,-1.41518,-1.3833691
0.5794518,-1.1682488,-0.1953632,-0.41312435,-0.81457293,1.6898156,-1.3751127,1.5285273,1.0139496,0.14882617,-1.8109962,1.7590415
-0.6677657,-0.14072457,-0.52237505,0.89761823,0.17592618,-1.0993385,1.2902231,-1.6035236,-0.679885,0.24782088,0.123074576,0.56736124
0.036141094,0.85897243,0.75169635,0.19099857,-0.25970206,-0.66329336,0.7035414,-1.3908513,-0.030294582,0.0049067233,-0.06937599,1.4691311
0.6391302,-0.268475,0.74817103,-0.18880971,0.88840014,-0.68718565,0.081047855,-0.45171434,-0.16225654,-1.3518145,-1.7668972,0.39641222
0.18191785,0.33131415,0.27586615,-0.7815816,0.25083214,-0.58817434,0.6550768,0.66962284,0.6222524,1.3426182,0.42422238,0.32294878
1.3693122,-0.318493,0.7253679,-1.4102043,-1.837148,-0.62888664,0.3858262,-0.25194898,0.76006824,0.76146966,0.82470155,-1.4526438
0.15888222,0.09414965,0.2997307,1.1199278,-0.6218848,0.20611568,0.44631767,-0.6621786,-0.30767012,0.52530694,-0.30766904,-1.4925209
0.86581105,0.93277335,-0.3948484,-0.94972116,-1.1693033,-1.6923082,0.96130383,-0.66944236,1.3030219,-1.854502,0.17410012,-0.41709688
0.4436472,0.54669476,0.12777565,0.4409134,-0.5675344,-0.4330642,-1.2827803,-0.7593517,-0.22874522,1.1575142,0.24243313,1.184288
-0.57402164,2.1960673,-0.41178513,0.51315933,-2.4396918,-0.7391381,-1.483111,-0.0017490475,0.5991435,-0.10388666,1.8604004,0.124727644
-1.8371371,1.0898345,-0.1789969,-0.21808441,1.1175826,0.4939951,-1.8761011,1.276609,1.1201226,0.44908106,0.22642936,-1.9947525
0.989134,-0.18542235,0.8961701,-1.0103847,1.0735785,1.496718,-0.595844,-0.94554204,-1.3008325,-1.1975365,-0.18659192,-1.8336601
-0.38030344,0.97616965,-0.3430177,-0.4783857,0.75749135,1.2865467,0.7650393,0.42434347,0.10977217,0.04109454,-0.9924594,-0.022812815
1.4598483,0.8784177,-0.26520842,-1.9858586,0.41425824,0.064075775,0.86652744,-1.0722957,-2.193689,0.5638196,0.47400668,-1.2526839
-0.051138394,1.0113868,0.21595265,0.6586326,0.38022205,1.8264751,0.9823265,1.5300462,-0.54160076,1.7704929,1.7004929,-0.79080224
-0.24689789,1.6853856,0.9093548,-0.5654175,-0.8984906,-1.3490202,-0.4664784,-0.26303145,0.25001213,0.49912483,0.8338997,0.41328737
-1.0816873,0.13452828,-0.2346695,-0.94476575,1.0736729,-0.44986477,-0.45460418,0.661718,-1.3590646,2.0558438,-0.39688304,-0.13815796
-0.4900615,-0.16838291,-0.51547176,-0.669559,-0.19100559,0.06778266,-0.5324104,-1.0108272,1.1584432,0.14821371,1.1094185,0.3706191
0.4889377,0.30376527,0.6922947,0.71330595,-2.4481347,0.486119,-0.7716574,1.4281381,0.56526595,0.6359238,0.60238194,1.3095849
-0.55479413,0.43725547,0.61009896,-0.100425385,-1.6298981,0.122480944,0.29310814,0.16578762,0.16909826,-1.01187,-1.6824354,-0.6101431
-0.37893212,-0.74299467,-2.0662017,-1.069705,2.687897,-0.6354435,1.0389134,0.15960787,0.9025251,-0.8698859,-1.1465086,0.8191246
-1.1934152,0.65736914,1.116223,0.9522203,-0.21334644,-2.0394602,2.3372722,-0.8732878,1.5271552,1.6972072,-1.6655893,-0.1405569
0.3557372,-0.25537556,-0.41069284,2.047316,0.23303632,-0.9763923,-1.9515735,0.8930054,-0.8579547,-1.3345956,0.4092498,-1.1025001
-2.5726159,-0.36451447,1.6240147,0.12054825,0.3771263,1.1034384,-0.72089213,-0.4635557,0.58128357,0.68323606,0.059065208,-0.4061917
-0.04870046,0.12599967,0.007597549,0.49191028,-0.8111554,-0.31254417,-0.06812719,-1.8377616,-0.14403105,-0.90945095,1.2824966,-0.94419545
-1.24,0.87670726,-2.709866,0.801367,1.1650816,0.99830693,0.16941011,0.34991682,0.5408294,-2.2799282,-1.7346563,0.8281564
-0.39059967,-1.0067824,-2.0586998,1.3670683,-1.8389971,0.40536043,0.49134767,-0.3847409,-1.7542862,0.83353555,-0.99388593,0.33904922
-0.8102296,0.56694514,-0.27236584,-0.78311306,-0.05630905,-0.42065528,-0.79269505,0.24428193,0.72565,-0.89237607,-0.23660268,0.85638195
-2.068603,-1.3546983,0.27486655,0.86410475,1.1924326,0.65064436,-0.29763222,-0.53364354,-0.28522646,0.31631452,0.9536948,-0.90908515
-0.6232876,0.87956375,0.4198408,-0.54624116,0.7827106,0.34598255,0.40640852,-0.49226713,-0.37075898,-0.8633103,2.5629294,-0.5098776
1.2096663,-0.19692013,-1.9256771,1.3901109,-0.94642293,-0.38467264,-0.71956,-0.87913096,0.80024755,-1.8531057,-1.4210376,-2.137718
1.9948814,0.64646333,0.6154433,0.2709118,0.47152218,0.6032677,0.36813894,0.9283037,1.5305942,-0.5007494,1.006204,0.9710375
0.7972458,-0.47498557,0.46634692,-0.44890592,0.9467513,2.8659234,0.45811775,-0.93742865,-0.75571483,0.79930973,-0.76963407,-0.41460603
-0.587368,-0.05124259,0.41592064,-0.09702257,1.2772433,-1.0759487,0.4893505,-1.6734984,-1.743785,-0.41042706,1.4298807,0.53483593
-0.68157095,-1.1261775,0.23873031,-0.34355053,-1.6179619,-0.1385564,-2.0956085,0.75859016,0.6418632,0.42414656,0.039385736,0.28066462
-0.98797363,1.2133255,0.07640087,-0.75445116,1.0219269,-0.7168663,0.59340394,-2.1008928,2.7381878,-0.49709773,0.6340086,1.0053059
0.3144313,-0.3597276,0.7660052,-0.054243505,-0.7507272,-3.2680616,-0.92254895,-0.25918683,-0.28216046,0.58232147,-0.36697194,2.5205882
0.64513224,0.8731878,-0.29786313,-1.1692609,2.2041671,1.4933392,-0.34541094,0.7425195,-0.6687842,-2.116717,1.5267575,0.34847197
0.44517544,0.7556317,1.485346,-0.80621785,-0.6188513,0.6841156,0.42469317,-0.14964814,-0.32006443,1.467707,-0.18827502,1.2242126
-0.11310734,-2.0221665,2.448115,-0.3845625,-2.3897486,-3.14287,-0.66224176,-1.2405517,0.3109314,-2.6882563,-0.53137237,1.2633462
-0.34972405,0.6061038,-0.2929424,-0.20773163,1.4632276,2.4663162,-0.5697845,0.111741714,-0.58694685,-0.35579705,-0.47652343,-1.7821972
-1.6425632,-0.63353944,-1.087177,-0.12865064,0.09597694,-0.9628001,0.8482074,-0.055373494,1.1648896,-1.555797,-0.24495922,0.59444183
-0.023318144,-0.6256983,0.32906166,-0.3037137,-0.63420564,-1.4282085,0.340274,-0.6101045,0.378243,-2.0766444,0.3273707,0.14400783
-0.51831913,-0.20349085,0.30578876,0.81847066,1.1317074,0.070389956,1.8668483,0.44820628,-0.080525026,-1.6310201,-0.36092877,0.113428675
0.2440396,-2.277558,0.8499766,-1.1464489,-0.7143533,1.7522752,-0.08083114,2.5442562,0.8013407,-1.413545,0.1590225,-1.5525185
0.10754531,-0.9444382,-0.11336778,0.28027076,0.80990314,1.2233992,0.38400242,-0.7539763,-0.4336793,-0.7116985,-0.49062115,-0.9939233
-0.46738565,0.29719466,-0.5865483,2.3406417,-1.3609347,1.4526572,-0.43832138,-0.25044665,-0.29480514,0.54616314,-0.9471524,-1.7621744
-0.27718762,-0.76267356,0.08909852,-2.6921537,0.014399204,-0.87588125,0.207683,-0.06939609,-1.375487,0.91148645,0.5359507,-1.0702839
0.7455502,0.52913934,-2.1236184,-1.4862319,1.2749598,1.5374373,-0.91666114,-0.4706478,-0.45762205,0.30842334,0.2916772,0.32543448
0.008676953,0.45315894,1.2898308,-1.5929767,0.6167454,-0.8507577,-0.38370782,-0.0768258,-1.090119,-0.87311673,1.3950818,-0.8444914
0.04333262,0.4946114,-0.4540784,-0.28695074,-1.2805314,0.6881151,0.16911939,1.7141825,0.18471566,-0.9563104,0.5557701,-0.23416963
0.1355554,0.8441385,-0.59994143,-0.23251131,0.49950197,0.53282523,-1.9145074,-1.2203557,-1.0283843,-0.1845542,0.25944626,0.087357976
-0.2583133,0.8659805,-0.26344377,0.892499,0.23650159,-0.5288619,-0.47319722,-0.16794154,-0.16135693,-0.5580939,-0.20323345,2.4069462
-1.815739,0.31002438,-0.1404024,-0.89074856,0.58286583,1.2723727,-1.9301413,0.77918684,-1.5578831,-0.822723,-0.217022,0.18069218
-0.21312237,1.0070349,0.6397347,1.0151658,-0.8629836,-0.12827496,-0.21183188,1.5837103,1.3645871,1.3596,-0.5740211,0.87707156
0.2343156,-0.2797015,-1.1821345,1.5887812,1.042606,0.39991668,-0.011274771,0.30330962,1.062509,1.6372352,-1.3158828,-1.1506652
-1.4821057,0.1496315,-0.6024618,1.2439222,-1.3338605,0.93902946,-0.62307435,-1.0306929,-0.7435849,-0.38413367,-1.1378171,-0.2427645
0.9698718,-0.2189199,0.9475093,-0.23550084,0.27223524,-1.3873669,-0.6160283,-1.1191635,1.2905213,-2.0172048,0.14123987,-0.6533088
0.9612652,-0.54429567,0.37035134,1.9269333,-0.04963697,-1.0768291,-0.32913575,-1.2267916,0.71938187,-0.23918636,-0.020456351,-2.1704342
0.49152356,-1.6841855,0.91724646,1.9166551,-0.8655723,-0.47912663,-0.9624876,0.5911812,-1.6279272,-1.4571778,-0.341874,-0.7450713
0.7338837,0.5974751,-1.44499,0.048237424,0.33587748,0.27488708,0.55320877,0.54285616,-0.12559342,-0.2577613,1.0041956,0.7192345
-0.21204533,1.0567936,-0.14609748,-0.2926607,-0.9011558,-0.46944055,1.3779086,-1.737087,0.5050465,-0.59179205,-0.2615757,-0.18852696
0.04046298,0.5908024,-0.19228022,-1.3705976,1.8086698,0.19907728,0.07242056,0.95981306,-1.310114,2.9928021,2.3209589,0.8269572
0.562405,-0.67442024,-0.021712855,-0.61695063,-0.7634341,1.9587433,1.3097948,-0.5654964,0.22362229,-0.35951388,1.9216546,0.54818916
-0.6526445,0.6729145,0.022567088,1.0091875,-0.3496213,1.1769831,0.79256004,1.6844844,0.11015679,0.02812127,-1.352261,0.56944126
0.8842347,-0.018431883,0.041654237,1.1264492,0.686287,0.1184431,0.9901975,-0.694794,0.10788764,-1.2274404,1.7557697,1.0375601
0.88054216,1.0726979,-0.43730265,0.21160181,-0.46651903,0.38353127,0.2206128,0.27509952,-1.4024315,0.09514951,-0.45158145,-0.9298598
-0.2273416,-0.15856096,0.4511016,-0.021238113,1.0606124,1.0170221,0.034739535,-0.5830004,-0.15068336,-0.57810277,-0.763599,-0.25032318
0.73660314,1.219076,-0.77648616,-0.6834522,0.7524629,-0.7839558,0.733789,0.14792833,0.60911757,1.5726964,-1.2908833,-0.5600192
-1.8278238,-1.3970684,1.1599529,2.1190853,-0.23339921,-0.48470736,0.36511,-2.211828,0.92098475,0.34894618,0.7089407,1.9318224
-0.63110876,-0.14788792,-0.31057805,-1.0212513,0.96117854,-0.0141004,-0.8700706,0.14447214,-0.6201248,0.76673084,1.4066683,0.928052
0.32626393,-0.9764831,-1.5429246,-0.4643243,0.9954628,0.56322104,0.6404051,1.45427,1.9373893,0.2398834,-0.4013191,2.1782224
-0.084989585,0.18532716,1.1586658,0.5621709,-2.0807068,-1.2923826,0.18274583,0.11428167,0.92915106,-0.70511854,0.016138094,-1.6112645
-0.59056616,-0.7704394,1.5956165,-0.34268823,0.3735662,1.1504947,1.2614813,-0.94032127,-0.10278554,-0.094968915,0.6475009,-0.29405773
-0.851835,1.1850907,-0.061192542,0.41262034,0.31494033,0.27500904,-0.17436537,1.1635846,1.5590754,-0.8038728,-0.95377225,-0.28897986
-0.34358856,1.9550325,-0.6052233,-1.8439355,-0.13659833,0.104615435,1.0538338,-0.3826179,-0.2057048,0.85965246,-0.90184504,0.061779164
-0.29927948,1.2364651,-1.6158853,1.5518785,-0.3625159,1.7511,-0.14006042,-0.22149636,0.5578158,1.2268122,0.30467987,1.72124
-0.7173672,-2.7363896,-0.25481248,0.91408676,0.73311967,1.7789198,0.9489633,1.5604908,-0.111582845,-1.5231166,0.14200838,-1.0196362
-0.6036628,-0.64043957,0.15485561,-1.5680137,-0.13783863,1.0580833,0.3547237,-0.20530337,-1.4630426,0.17540419,1.881393,-0.15624486
-0.053679932,0.60936075,0.115328655,0.617931,-0.61931777,1.0656189,0.90051144,1.0298738,0.61565596,-1.1874138,-0.2550935,1.4778281
2.0970905,-1.1430748,-1.2696006,-0.59556764,-0.60964555,0.55862737,0.3011961,-0.5103895,-0.5183737,-0.9819251,0.013686203,-0.016176602
-0.6315494,0.26151,0.96595454,0.090256706,-0.26341492,-1.3355451,-0.9550949,-1.1717718,-0.037576348,1.7215923,1.0316106,0.7547522
-1.3597567,0.6847174,-0.67652375,0.6427815,-0.9027453,-0.16121188,-1.1453698,-0.73149645,-0.36552352,-0.014983879,0.4761922,0.11238239
1.5988421,-0.5500505,-1.415936,1.4941357,0.36163297,0.14800623,-0.6342613,-0.1300385,0.97159785,-1.6555248,0.7458291,-0.26678407
-0.84773505,0.059364386,-0.74034196,-0.09941155,-0.11674989,-1.3421526,-0.31163114,1.0516309,-0.56866986,-0.48587686,0.9185575,-1.2038641
0.95763165,-0.15287785,-0.5159578,-0.85608053,1.1173544,-0.26286978,0.7642053,0.29687726,-0.16415589,0.72737116,-0.53348917,0.7232552
1.0937572,-1.6449691,0.029422043,0.17059499,-0.38889116,1.5183789,-1.5527046,-0.39180538,-1.5124376,0.8430133,0.07731815,-0.51292115
0.7791363,-0.4066866,0.50443214,0.8863038,1.1040817,1.7254062,-0.5603644,-0.594132,2.8192897,-1.3686855,1.2639834,-0.11631607
0.32820812,0.73195136,-1.4989735,-0.49048683,-0.8732943,-0.70064944,0.7263758,0.82056814,-1.124791,1.0820336,-0.30551806,0.0852461
1.5329939,-0.35318848,0.57480323,1.149749,0.13648237,-1.5629821,-1.1924926,-0.2760401,0.28601333,-0.30214307,0.29645437,-2.7769287
0.54721963,-0.7027767,0.90091026,0.8449595,-1.0386715,-0.6254265,0.59107804,2.1052406,0.14947358,-1.4187025,1.1913514,-0.21196099
0.7061303,0.26879865,-0.1487462,-0.8096062,-0.2639638,-2.09498,-0.42820594,-0.076212876,1.4106419,-0.021466503,-0.26413947,0.033968195
0.8647609,-0.5815359,-1.8426226,-0.11590334,-0.084860004,0.15769996,-1.2876767,0.3549446,1.0143523,0.5894419,-1.0704389,-0.8042361
0.42799506,0.27957696,-1.2844508,2.6400406,1.4562162,-0.006054642,0.18945126,-0.30026627,2.1065433,-0.29275054,-0.13017198,-1.1589007
0.276638,0.48814222,1.3611002,0.78626794,0.27566937,-0.24767064,-0.831334,0.38244143,1.1117452,-0.02907769,0.6888592,-1.9478115
1.2744443,-0.38592437,-0.39517838,-1.5345149,-0.31512192,0.6038356,-0.6921728,-0.28045124,-1.7710152,-0.35579938,-0.17212234,-0.83243424
-0.6550157,1.234633,2.4225285,-0.15615793,1.6712047,0.020183984,-0.1952418,0.031079799,0.8838017,-1.5663613,-0.6835301,-1.2189215
0.85237926,-0.26131877,-0.35256052,-0.30960044,0.43868774,0.80875885,-1.6409777,-0.5295726,-0.20300078,-1.3636765,1.1105752,1.1356609
-0.7587408,-0.20081723,1.7977241,0.120583996,-0.36356467,0.19740658,-0.6686875,1.0673826,0.28403187,0.40892464,0.9124576,-0.616551
-0.5550088,-0.12698776,0.6325802,-2.4015982,1.783704,-1.7025198,-0.43329751,-1.2750717,1.0979717,1.620988,0.62471217,1.8780618
-2.260414,0.9379545,0.76452196,0.21493955,1.3081752,-0.82229644,-0.2542307,1.1563995,-0.20663556,-1.2422012,-0.14652136,0.033073686
1.5390542,2.298991,-1.3673722,0.55343884,-1.5036982,0.34736785,-0.91112465,-1.2267276,1.3658805,0.83934385,0.069840185,-0.9220535
-0.08328954,-0.9606299,-0.72165143,-1.8613923,-0.24970302,1.3962362,-0.19984087,-0.6839599,1.1907685,-1.8008349,-2.4112225,0.33502796
1.4479656,0.13162316,-0.3142938,-1.2581381,-0.72260153,0.25141552,-0.7385381,0.7768248,-1.0228388,-0.36867547,0.13115847,-1.4873233
-0.09735689,0.083503805,-1.0945022,0.2008034,-0.031856276,0.13181327,0.18851794,0.70599157,1.2976358,1.0167699,-0.48561034,1.6282321
0.110661976,-0.049837425,1.036761,-0.74064815,1.3391578,-0.6946349,-0.8150509,-0.26345178,1.059176,0.53183943,-0.48694196,0.62341034
1.4559864,2.078961,-0.52939653,0.23564683,-0.2528964,-0.9157502,-0.27992007,-0.2354235,0.5120697,-0.3554214,0.33566296,-0.57330334
-0.3391859,0.03593907,-0.58864903,-2.02681,-1.2797902,0.65323466,-0.4036073,-0.32575434,-1.6129055,0.03463043,-0.11975596,0.6422525
-2.0771294,0.08466629,0.43935558,0.4817165,-0.38014504,-0.07959556,-0.8839545,-1.1190747,0.68534136,-0.05317576,1.4671309,-0.708196
-0.22495052,0.99740916,-1.0595728,-0.7631839,-0.013039614,0.20676272,-0.09747394,-0.28242227,-1.811526,0.6561877,0.8092426,1.1964512
-0.15495229,-0.12472508,2.0257344,-0.28689954,-0.18931466,0.68887067,1.030398,0.15506104,0.48620504,0.6548012,-1.5203091,-0.6982976
1.4387141,-0.21345997,-0.6941759,-0.72069514,0.6348676,0.7156914,0.19842196,-1.5396541,0.09024437,-0.81776166,-0.43541372,0.9819386
-1.010053,1.0562713,0.20585547,-1.1195333,-0.7759924,0.56520504,0.18256265,0.74414593,0.5805077,-1.3635812,1.3737937,-1.3084447
1.6059235,-1.0258789,1.1836995,-0.20610431,-1.2167583,1.4267277,-0.95937496,-1.3025906,-1.7228695,-0.981396,0.5428141,1.1091275
0.8832233,-0.35541555,-0.14012434,-0.24244303,-0.7438671,-0.70836645,-0.049328547,0.6456417,0.57168734,0.6218586,0.794998,-0.074163616
0.4033577,-0.56946635,-0.7436854,-1.3842161,0.034567192,-0.37063372,-1.1482056,0.9690829,2.0651386,0.97559845,-0.058307454,1.0322466
-0.5746076,0.35839763,-0.4776159,-0.6695054,1.76991,-0.33757162,0.20758632,-0.7467988,-0.6284564,1.3111814,0.61140347,-1.22586
0.8862424,-0.5099518,-0.6703007,-0.37073365,-0.72688633,-0.52724624,0.6880758,-1.0512108,-0.91994625,0.45767507,-1.2867689,1.1023866
1.8761001,0.665903,0.39875513,0.097796775,-0.0524968,-0.77523476,0.6355181,-0.92017007,-0.5456509,0.039051846,0.8566766,1.4623532
0.4068006,-0.6157488,-1.0838864,0.35804114,-0.23279515,-0.51252675,-0.5086129,-0.42453298,-0.14413698,-1.8570167,-0.69735354,-0.36827475
0.91199225,-0.110760115,-1.1414435,-0.11962426,-0.98888254,0.19126713,0.9908018,0.46988654,-0.45043012,0.3985793,0.741915,1.5791475
1.3416173,-0.6924578,-0.7138022,0.4589962,0.62086755,-0.10217856,3.4542465,1.3243561,0.42763975,0.4755572,0.7506661,-1.2020929
0.3336309,-1.4838383,2.5341926,1.5973787,-1.2326281,0.5049663,-0.8441028,-0.7247049,-0.47976485,-1.969068,0.49222177,-0.03131203
-0.02841588,-1.6424763,0.43178344,-0.62185913,0.531917,1.0559831,-1.3773909,-0.7551746,0.16207191,-1.6213778,-0.20833255,-1.2428827
-0.2972619,0.88866764,0.89928883,1.0611043,-0.33636072,-0.119212024,1.2943343,0.86380076,0.35471845,-0.7723294,-0.6371409,-1.0527236
0.11743582,0.18950969,0.5830043,-0.3513842,-0.10868424,-0.15525772,-1.1614407,-1.670243,1.126072,0.09281323,-1.3100528,1.4398141
-0.79728323,-0.86286885,0.11253384,0.3715123,0.3791675,0.47858685,0.20912704,-0.13842766,-0.5414361,0.21778402,0.06732548,-1.5407357
1.5289091,0.7996887,-1.3221815,-0.6514043,1.1179547,0.63703424,-0.5799945,-0.3368863,-1.8900689,-2.783522,1.4529368,-0.31183338
0.8225742,-1.2070718,0.71141565,0.46713522,-0.7843976,1.2282634,0.7603738,-0.2775009,-1.2479836,0.7550709,-0.23039886,0.64090925
0.20086908,0.6706026,0.9704213,1.4331514,-1.9805937,-0.7678401,-0.6830239,1.0553454,-0.33226117,0.5189272,-0.27416846,-1.1342493
1.9435818,-2.3166718,1.0087562,0.47304273,2.1119328,1.1513168,-1.7945746,0.4134517,-1.9584826,1.3257605,-1.3792534,0.025898723
-1.4729049,1.2598913,-0.6667597,0.8471849,0.6038053,-0.17626591,0.050534327,-0.6638996,-1.8767482,-1.0378019,0.6918393,0.90904856
-1.4544193,-2.3447611,1.2898973,-0.15418026,0.27311096,-0.41699448,-0.13036744,1.1764743,0.01891072,2.5896008,0.8576106,1.1976018
-1.1828738,-0.75403816,0.06408661,-0.7887644,2.141944,-0.52831906,0.40320027,-0.3602519,1.3845699,0.87542295,-0.5495265,1.7052798
0.5595312,0.80208254,0.08708351,0.33061305,0.011566003,1.6169544,0.0874329,-0.36916974,-2.1280556,0.41589898,-0.6124225,-2.5312502
-0.07128081,-2.0253499,-0.12579426,-0.9957257,-1.2422113,-1.1789974,-0.7396137,-1.4128351,-0.16676304,0.5659543,0.9759931,-1.6143708
0.34139538,-0.29115373,-1.5086956,0.05859896,0.4049592,0.14883065,-0.04883819,-0.5930593,-0.9094259,-0.968988,-0.69574714,-0.68464106
-0.20479222,0.9153305,0.8288882,-0.14324735,0.20833114,-0.15431038,0.3661393,0.031728312,-0.5957705,1.488593,-0.015723765,1.907651
0.0061706044,-0.19428226,0.7145962,0.7345198,0.9123527,-0.76474005,-0.15112329,-1.5958991,0.30033228,1.1583545,-0.98380166,-0.69661677
0.25278914,-0.96048415,-0.50683045,0.6714986,-0.12382065,0.61799276,-0.8732131,-1.387106,-0.34610656,0.19509627,-0.36736485,-1.8496263
-1.7694674,0.055542402,0.6806241,1.0781294,0.7609459,0.6302912,0.24726237,0.74221826,-0.02132332,0.9954256,-1.4904156,0.99173295
-0.33940658,-0.5073291,0.7213593,-0.3598887,1.9250797,1.3440607,0.44303325,0.4452759,-0.15474862,-0.0010008985,-0.16061048,-0.59561324
0.64139706,1.1957506,0.18378237,-0.5089696,2.3681142,0.45566007,0.73540103,-0.50358605,0.11093028,0.16341257,-0.5040519,-1.1077191
-0.90082234,-1.2237998,-0.51763284,-1.0465474,-1.1449854,-2.0568054,-0.0556316,-0.744834,-1.2650841,-1.0184592,-1.6832918,-0.69573706
1.1422256,-0.03543184,0.6321477,0.30304945,0.62392336,-1.7726223,0.41077477,-1.0200202,-0.00270674,-1.2567979,-0.4089189,-1.5150176
-0.8897358,-1.071918,0.5720429,-0.1670774,0.39009696,0.29587713,-0.69367814,-1.6389195,-0.011917859,-1.7408139,-0.9969627,0.80382186
1.433802,0.26555258,0.8244211,-0.26919016,-0.21631347,0.19975339,-0.62886816,-0.870345,0.69617766,0.1911268,-0.7096163,0.06365151
0.09207005,-1.3995285,-0.6278345,-0.9537874,0.9711551,0.93290937,0.03181258,0.3563107,0.8267528,-3.583034,-0.4071392,1.0876017
1.6550132,1.5717335,0.91034997,-0.22248599,0.5516026,0.67911375,-1.7872057,-1.5896732,1.0628867,1.8004118,-0.5956896,-1.585864
0.3565158,-1.7229217,-1.1377454,0.6741335,1.814354,1.6625429,1.3335016,1.8394961,0.8902727,-0.17658386,-1.7095485,-0.87303543
-0.9462543,2.542199,2.3629725,0.7018239,-0.28428477,0.35642782,1.2594181,-1.1112176,0.524211,1.2739961,0.4803495,1.1809453
0.50451624,0.24300463,0.12682223,-0.6590831,-0.5628563,-0.3747622,0.97116727,0.4781924,0.94334215,0.43833545,-0.6313175,0.9767436
0.63144064,-0.65623164,1.1802518,-0.14315476,1.1972507,1.3548615,1.661914,1.2335252,-0.5224905,-0.56140137,1.5946158,-0.48322448
0.62122196,-0.32457262,-0.77113277,0.15135962,-0.9816514,-1.1887407,-1.4433655,1.178004,-1.1866444,0.2670527,-0.2120072,-0.52922404
0.012318246,-0.13766256,-0.22069779,0.775767,0.7974528,0.21551561,0.7452991,0.41213107,0.8895572,-1.3462431,-2.9214292,0.44700688
-2.5700037,-0.17640275,0.50543636,-0.73505455,0.53633,1.2830279,2.148999,-0.34335443,-1.7633741,-0.13135275,-1.5557343,0.63969994
-0.20736176,1.2266269,-0.9745411,-2.6699114,1.2830907,1.3340106,-0.07970102,-0.3446573,-1.0020158,0.30752763,0.41648334,-0.08025202
-0.2992045,0.3891726,-0.75792646,-0.5524847,-0.34198433,-0.38528642,0.48225346,-0.26919055,-0.26183096,-1.1591356,-0.04157597,-0.0376315
-0.5447389,-0.22755784,0.12920325,1.3111813,-1.0734265,-0.6677171,0.97808045,-0.11821998,-1.8368571,-1.2096598,0.6182696,0.25283822
-0.38476196,1.7605851,0.37041676,-1.2622708,-0.2843962,1.2617892,0.1996758,1.1201963,-0.5973412,0.69816643,0.20534334,-0.2025988
-0.015689055,0.64141953,-1.2467324,0.4962089,-1.2341202,1.0638181,-2.3334117,1.3063267,-0.7263503,-1.2870382,-0.8884902,-1.4657997
-0.68825155,-0.85796076,0.10722665,-0.6576113,-0.60164744,-0.16847017,-1.1023663,-0.5721205,-0.98290795,-0.08529976,0.57932097,-0.32684204
-0.63871366,0.032682408,-0.54559577,-1.773023,-0.28838697,0.34173992,1.0458701,0.18506153,-1.6192843,0.9988091,1.42495,-1.3013192
1.0996736,2.9715014,-0.3731588,-0.63284147,0.9712507,-0.73153734,-1.242823,1.0527263,-0.6412705,-0.25884598,-0.7023144,-0.7529354
0.29872453,0.5603317,0.23095407,-0.87771624,0.24139282,0.13509169,0.9930119,0.5486565,-1.7059536,1.3390659,-0.08972491,-0.08668116
-0.44614,1.085871,-1.2531724,0.19337878,-0.47248122,-0.094946824,1.4995484,0.9007691,0.013562128,-0.44364393,-2.1408057,-2.2227366
1.3745733,-0.47666538,-0.5195784,0.20643418,0.31831273,-1.1558336,0.012945701,0.22219045,-1.1894478,0.3955626,0.17643872,-0.6456882
1.5650069,-2.2082136,1.088785,-0.5819168,-1.3364892,-0.3878912,-0.30432826,-0.43842286,-0.5507496,0.9827392,0.9761723,0.9716291
-0.58291715,-0.14548008,-0.63368267,0.45847508,0.8531812,1.457157,-0.772733,0.1042758,-1.2650789,-1.2250087,0.20870984,0.5140076
0.0015220055,-0.42058796,-0.48093718,-0.68853354,-0.5008451,0.30480954,1.3529092,-1.4755949,-1.0013531,1.83035,-0.5612495,1.8700805
0.013477019,0.007898346,0.1961884,-0.35418543,0.94991004,-1.3250618,-0.3814816,-0.19049554,0.9511043,1.0890827,1.7831227,0.17398702
-1.2693603,-0.82819533,-0.28951842,-0.45353368,-0.6795251,1.0989268,0.1804324,0.012392872,-0.29758522,1.0293995,-0.4874968,0.14261939
0.45962304,-1.696267,-1.583029,-0.74676883,-0.9357904,-0.6711262,1.0977643,-0.12062661,0.17457408,-1.5170165,-1.7882885,0.72084314
-0.6657936,-0.8700398,0.38346398,0.30663866,0.8675369,-2.3619235,0.6511607,0.7528118,-0.8631191,-2.1805296,-0.23328295,-0.24422073
-0.9800068,0.77859926,0.41142997,0.22422716,2.4284024,-0.54183334,-0.11874539,0.24406154,0.36494806,0.32044432,-0.4451419,1.2144026
-1.9858783,0.5707985,-0.67976063,1.1692446,-1.0048293,0.7357598,1.7299815,0.16570222,-0.02448936,1.6691508,-0.3462544,0.037107375
0.14801504,-0.529841,-0.5138655,-0.577781,-0.46152487,0.9591723,1.4389232,0.9288356,-1.1030947,-0.033905692,-1.2328799,-0.99425113
-0.49621,-1.5661607,-0.87569356,1.9322543,0.7648299,-0.2775856,-0.9497637,0.56042373,0.6029204,0.19175336,-1.0290133,-1.0228957
-0.6320891,-1.1317848,0.6209784,-0.07644288,1.1413363,0.524935,0.8164946,-1.885713,0.60618734,-0.3825198,0.18851484,0.32416922
-1.761609,0.24123809,0.021934424,-1.2269354,0.26901844,-0.09549857,1.0782378,-0.06252427,-0.46062183,1.8043119,2.1845846,-0.5113797
-1.7216579,-0.37489504,0.037633933,0.6096836,-0.5856244,0.25327906,0.015332728,1.0857362,1.0446744,-0.83106,2.041266,-0.42523542
-1.5170636,0.50298506,-1.9181329,-1.9194697,0.2258747,0.25570846,-0.80769384,0.03354449,1.6862438,-0.07524375,-2.2061386,0.22355485
2.7317393,-2.496265,1.2623101,0.26384628,-0.6612561,-0.21148509,-0.98926574,-0.093739755,-1.0622716,-0.067921445,-0.38112167,-0.970677
0.22979195,0.89507896,-0.18425858,0.03636285,-1.5646085,-0.4684762,-0.9424753,0.7022708,0.3274728,1.3198991,1.4001937,0.17452763
0.6126032,0.8282608,0.1966773,0.80128735,0.16686401,-0.9195716,-0.8154806,-0.89445394,0.91433895,-0.05984157,-0.88448167,-0.18325502
-1.7067435,0.751023,-0.1463306,0.35425586,1.4946554,-0.22317573,1.232069,-0.60669476,-0.43328077,1.363477,0.4789536,0.8406388
0.71044445,1.9705008,0.9732669,-0.4170778,-1.1897143,-0.8812059,-0.44854727,-0.5616796,0.7632734,-1.4367577,-0.365731,0.5309747
0.3165992,0.0035225644,-0.9163572,-0.5065026,0.40182823,0.12087947,-0.43404502,-0.7339449,-0.74480677,-0.080317475,0.6198389,1.1238985
0.34473926,1.2112666,-0.79919696,-0.50043386,0.8029793,-1.6821476,-0.6362863,-0.6267162,0.14608344,0.20470664,-0.60645807,0.7307188
0.5301898,0.9613045,-0.5186336,-2.1247375,-0.29372025,-0.3359242,-0.01139499,-0.41624603,1.6963657,1.4446621,-0.26008317,0.053695064
-0.015509346,-0.14042059,1.4458631,-1.6507369,0.09037666,0.09091669,1.587459,1.5701715,0.14510716,0.64100456,0.46034893,-0.2805903
-2.1500232,0.33811602,-1.1490797,-1.2272434,-1.1751454,-3.5078838,0.09739373,0.29800513,1.0181113,-0.07725597,-2.5933979,0.10630007
-1.2218177,-0.9351339,0.113533825,0.3679435,-0.4537431,3.1841898,1.7404056,-0.88158685,0.3319169,2.6342032,-0.0050431304,1.1114111
1.2075486,0.22592214,-0.6058279,0.47811487,-0.42530736,-1.654544,-0.7063102,-0.51136285,-0.2332458,0.3813718,1.0029343,-0.19438192
0.34775698,-1.4535491,-0.45158437,0.2962366,-0.037827615,-1.4840477,-0.7366143,-0.61948067,1.4855251,0.93270874,1.5747033,1.0343499
-0.39385882,-0.5253142,1.273553,1.8534442,-0.104579456,1.7083721,-0.9444288,0.20212145,-0.33813176,1.3543967,-0.07960232,0.2831673
1.0731343,-2.6502364,-0.35860455,-0.0007614792,-1.0878636,0.3166386,0.8055677,-1.3136436,0.29852736,-0.9123406,2.6512737,-0.52170193
-1.1278217,0.48200786,-0.15346731,-0.79237735,0.12005909,-0.5942744,-1.7702079,-0.08213598,-0.26906982,-1.1055323,0.38616282,-1.7017978
0.94148934,0.33513314,-0.7084752,1.2637612,-1.991525,1.1759317,1.7216094,-0.9948802,0.40614685,-0.9267257,-1.2683932,-0.57236737
0.47057462,-0.5150039,1.4540242,-0.11771967,1.3633833,1.514579,1.285945,-1.3086059,-0.3440387,0.28434137,0.32469684,2.20107
-2.134592,0.9729424,-1.5961895,0.46842277,-0.95477366,-0.41800192,-0.22669275,0.92163146,-0.2371892,1.4497381,0.16839638,-1.711469
0.43812364,0.1834649,1.2250314,1.35409,1.7202995,0.09423783,0.5757707,-1.4037454,-2.448659,-1.0729136,-0.84148747,-0.45523205
0.71485513,0.016810507,0.6887522,0.09820896,-0.80060196,0.98131007,-0.8675941,0.56719136,-0.510077,1.4739665,-0.73067003,0.53909117
0.1149027,-2.0959783,-1.043941,0.05371436,0.31917632,0.31441632,-1.0227158,-0.23969162,-1.1876876,1.0303593,0.80669975,-0.07824297
-0.46373466,-1.3997487,-0.07400462,0.87577885,2.1749177,0.7152758,-0.5298533,0.3281554,-0.7885984,-1.8199339,-0.17000999,-1.2629447
-0.66914207,0.4373362,1.2031778,-0.39502653,0.48988834,0.93360466,0.5060609,1.1217186,0.5032125,-0.46766979,-0.6843117,0.28472897
-1.2472918,0.20288336,-0.9504842,-0.58983725,0.60112524,-0.51324433,0.36687315,-0.34221113,0.005440141,-2.1364772,-0.83029944,0.010396594
0.7780668,1.4267744,0.24218236,-0.078987524,0.19985744,0.7970153,0.079289615,-0.23921129,0.933115,0.1084988,-0.4835168,-0.6322457
0.6551172,0.46752474,1.2641698,0.47730073,-1.0927166,-0.62593687,0.9245209,0.49622282,-0.9524535,1.4771532,-0.82121056,-0.6770604
-1.0444837,-1.1677618,-0.9460085,1.0387821,0.127573,-1.4902135,-0.57556534,-0.17959896,-0.9663324,-0.38743693,0.699366,-0.49029773
-0.016982496,1.052224,-1.7337041,-0.47495016,-0.64390165,1.2138417,0.9832757,-0.32810232,0.51445276,-0.34367603,-1.6787812,-0.87332004
-2.4499087,-0.5719753,-1.4571615,0.107029796,1.4790351,1.2243474,-0.41009346,-0.055208817,0.34152988,1.7809858,0.14440784,1.3389846
0.6256841,-0.553242,1.072385,-1.9016136,-0.67413884,-0.2364136,-0.9334054,-0.958635,1.1025796,-0.07059132,1.5996146,-1.0882517
0.60573924,-0.32592377,0.18116912,0.9643162,0.514829,-2.466947,-0.6601292,-1.2316283,-0.9856602,-0.038451407,0.7718024,-1.8176951
-1.2352797,0.06045096,0.09877152,-1.9164009,-0.95964575,-0.7663504,0.42784372,0.641832,-1.4923395,0.21754137,-1.8768017,-2.3161066
1.0512722,1.1724185,1.9016793,1.4210835,2.013166,-0.97873026,1.0269812,1.4992093,-0.46358773,-0.71254474,-1.889816,0.6436497
-0.2597836,0.07348905,-0.5439882,0.5408934,-1.1240462,-1.4022962,0.47018766,0.7564211,-0.22407368,2.2701502,-0.17056787,0.013404413
-1.2310399,0.45574352,-0.973541,-1.340127,0.60078174,-0.7025338,0.032377172,-0.29282227,0.26316187,0.8143239,1.6331091,0.12493725
1.5163413,-1.1434476,-1.5123441,1.164839,-1.9257373,-0.3748891,0.34607103,-0.21211235,0.8393618,0.4016383,-0.39577243,-0.025827637
-0.3614575,-0.48741332,-0.177139,-1.2972533,0.07865678,0.7553695,1.1497133,-2.1720746,-0.17561704,0.23957717,-0.34807312,0.8124918
-0.866298,-0.30430722,0.5976377,0.60020244,0.93023777,-0.80963916,1.524391,0.5218215,-0.58261544,0.37288415,0.2943258,-1.8053252
-0.6677422,0.07434477,-2.266723,1.612367,0.07749848,-2.0915427,-0.08641689,0.6828988,-1.0710284,1.614593,0.80080867,1.2960343
0.17590359,0.37065047,0.97427064,0.57751334,0.25326857,-0.84297174,-0.06609445,1.0401387,0.17367136,0.087770656,0.72738904,0.8676488
-0.29887602,0.7661561,-0.96202916,0.9764532,0.7518564,0.70220375,0.96577543,0.48047495,-2.2164967,-0.24429423,1.3302234,-0.82657605
-1.5665941,-0.48803383,-1.0419496,-0.031519383,-0.8271005,-0.57947254,-0.64284015,0.04765574,1.7005588,-1.748605,-1.727472,-0.9378063
-0.24434547,-0.78162146,0.10015822,1.4781252,-1.035609,0.0432565,-0.2308956,0.7197809,2.035128,0.14643186,1.4900652,-0.95767325
0.38044846,1.1426488,-0.82971,-0.32096303,0.9128549,-0.9977621,-0.08759755,-0.8149936,0.28436655,-1.8878832,-1.2253637,-0.77256656
1.049623,-1.5903567,2.4143965,-1.5876342,0.39516288,-0.8391993,0.11482574,-0.056642786,-1.009193,-0.045692153,0.033145405,0.7190157
0.0674003,-0.2259687,-1.7315453,0.65033966,-0.46021947,-0.34351015,-1.0121301,-1.1319139,-1.5191467,0.8746114,1.0156723,-0.5171726
-0.12420721,0.16964836,-0.047783006,1.5693556,-0.22055174,0.84702003,1.29405,0.6516015,0.1432613,-0.88706315,1.754188,1.0310977
1.6944095,-0.525371,-0.15595679,0.33661515,-1.0051832,-0.2141571,1.2680137,-0.94374967,-2.2672617,-0.49753827,-2.0715249,0.35045666
-0.5058669,1.2942969,-1.1227635,0.05937622,0.117813356,-0.7817852,0.46332937,0.60225123,-0.97484636,-0.5186626,-0.242176,-0.4038839
-1.0672383,1.0491945,-1.9471891,-1.7815323,-1.4267541,1.2726823,-1.0545509,-0.28432554,-0.77817535,-0.3617154,0.12380133,-0.22594765
1.0222731,0.80033886,-3.2384632,0.2091308,-0.2909311,-0.15599833,0.43560988,1.198313,-0.42050156,-0.29062942,-0.32722136,0.6419772
0.5504138,-0.7095141,1.0090239,-0.39071554,-2.1461518,0.21962205,0.009165848,1.1440785,1.2149988,-1.2333341,-1.2807982,-0.06702923
0.46092084,0.21347553,0.6022788,0.20027247,0.7380054,-1.8945918,-1.1387762,-0.7325634,1.754344,-1.3320816,1.4003645,-1.3326583
-1.8604703,-1.0200177,0.7969331,2.4929314,0.56913656,-0.0080250045,1.0738708,0.15739816,1.5694132,-1.150503,-1.3102715,0.42905247
-0.19193402,0.826459,-0.2724991,-0.35142857,0.114709705,1.1029071,1.4847103,0.13018186,0.00066167436,1.2756113,0.26986596,-0.95821804
0.26645446,0.2816553,-1.9386231,1.5629824,1.1189551,-0.7624679,-0.5525958,0.8780083,0.51077217,-0.82695925,0.8806981,1.7243336
-0.55340356,0.42438948,0.5838223,-1.0834042,0.3858775,0.70099944,2.1735528,-0.26716805,1.1364483,2.4304705,0.26838404,-0.207059
-0.18694064,-1.0928886,0.48256367,-0.4550235,-0.18137388,0.3877155,1.3317873,-0.65352637,0.9526235,-1.0255132,-0.022674467,-0.71416384
-1.2203356,-0.7207812,0.24891886,-1.5736344,-0.08627315,0.91553587,-0.39395165,-2.0384111,-1.4228296,-0.8007482,0.7623683,-0.5701602
-0.4882065,2.4516299,1.6962627,1.874811,-1.3279275,-0.32447863,0.878557,0.26324594,-0.6667102,-0.16965659,1.2885144,-0.11952446
0.28035042,0.06613465,1.4765258,0.6606984,-0.78806585,-1.0179,-1.2390052,0.40555343,-0.6929357,0.007612722,2.4459383,-0.7155481
0.38208222,1.489709,-0.75390345,0.0117616635,-0.23224889,-2.0592923,0.35705978,1.0016139,-1.1233227,-0.7545285,-1.1308584,-0.6084722
1.0139071,-0.48955208,0.19840182,0.6270057,0.92034614,0.61144835,-1.5835956,1.4252069,-1.0889664,-1.3980592,-0.851918,0.5178377
-0.20049618,-0.12370103,0.61534804,0.74078083,0.734159,0.40951926,-0.9092927,-0.16105987,1.1673064,1.3412753,-1.2173854,-1.3516036
-0.3535453,0.20135982,-0.244088,-1.5415545,-0.6546888,-0.6025407,-0.44422907,1.2511567,0.8661955,-0.3646403,0.97323596,1.532253
-0.09023464,0.177016,-0.36823148,0.09106907,2.23606,-0.29467833,1.0354753,-0.86607236,0.971582,-2.0106106,1.704562,-1.2700218
-1.7246083,1.0594662,1.7538221,-0.54329836,0.20113392,1.7028964,0.996002,-1.015272,0.5810011,0.30092224,0.70939165,0.32981005
-0.54684997,-1.6135778,-0.2711606,-1.4483246,0.60854936,-0.1769952,-1.3353575,1.4405762,0.68779004,-2.0614116,-1.5879767,0.4627129
0.71341914,0.4285704,1.824991,0.37301248,-1.4144386,1.1563075,0.40259507,-1.2268907,-0.6333268,-0.72601455,0.23483928,-0.6674953
0.71217084,-2.1352777,1.3584371,0.9225694,-0.44153565,0.40043336,-0.45019466,0.19651245,-0.43875155,1.8215287,1.3440968,-0.84442157
1.2885759,-0.88172257,-0.10917583,0.6478221,0.621244,0.05385352,-0.23291692,1.708552,-0.099501595,-0.8851593,1.2583963,0.70445985
-0.9574879,1.454282,1.8074993,-0.09622691,0.27027386,-0.94054556,0.8968683,0.98427,-0.21213661,0.28713697,-1.3801895,-0.15645233
-2.094884,-0.56815004,-1.3660691,-0.03680425,-0.5386876,0.23232459,1.5226333,0.14607093,-0.3303461,-0.18048736,-0.7738637,0.48743203
1.0357294,-0.44441298,0.9510002,0.16818906,1.4894593,1.7196728,-0.46565613,1.1725786,0.43636864,0.2122395,0.10269082,0.79164606
-0.38960472,-0.4238814,0.44897303,-0.9822199,0.9241889,-0.5172402,-0.9067279,-0.08360508,0.376044,-0.11216373,0.4884095,-0.6181638
-0.883306,0.48552364,-0.83278143,-0.051209964,2.2777085,0.50477,-1.4858141,0.4398686,-0.45591667,-0.6842177,0.64567196,-0.6207609
0.043757476,1.0688621,-0.78673875,0.56354666,0.1453359,1.0235671,-1.1100127,0.87239736,-0.18636213,-1.284956,0.34537256,0.7184744
-0.7654488,-0.8757002,-2.616507,-2.7619505,0.5979142,0.83150506,1.6175863,0.8816675,0.5544169,-0.8780449,0.4957253,-1.7534881
-0.6764848,0.39027736,-0.573121,0.5329223,-0.7002731,-0.9338979,-1.1775501,-0.5111522,0.060430843,0.33405983,0.49731126,-0.41142845
0.25285536,0.5689696,1.6054417,0.31416222,-0.88298696,-1.2175225,-0.684544,-0.21073301,-0.15964235,0.91257924,0.32353222,-0.7123401
-0.10411456,0.61470664,0.054665275,-1.554592,0.5085725,-0.37689674,0.34847358,-2.1438937,-2.0602791,0.6089294,0.49241513,-0.15637527
0.37996092,-1.4612488,0.31871995,0.051299535,-1.2744097,-0.828876,1.2594289,1.2492148,0.26904896,1.5642376,0.98204935,-0.1695349
0.28804278,-1.5880895,3.1625805,-0.16370848,-0.763221,-0.7678995,0.048214793,-1.6688777,-0.99786866,-0.62937975,-1.1872561,0.42160648
0.30770278,0.9395383,0.03518176,0.48102832,0.43128613,-1.4462504,-0.7023651,0.27327043,-0.36797324,-0.872923,1.9758519,-0.4651684
1.0362853,1.0157208,0.8682307,-1.286891,2.6226437,1.2383101,-1.2116169,-1.1095743,1.3616511,-1.3952094,0.15570284,0.9068754
-0.51729184,-0.035406068,0.62430584,0.31093684,0.09487812,1.4805748,0.8202498,0.3353493,0.049555596,-1.0976379,-1.1223193,0.07652404
-0.9480316,0.63256717,-1.346219,1.9615599,0.96978307,1.56099,-0.215088,1.8810979,-0.11992378,0.61232054,0.9645964,-0.39917913
-1.4845195,-0.75508606,1.0827572,-1.0407925,-0.09420598,-1.5193611,0.2943925,-1.2651298,-0.059320338,0.04329128,0.522391,0.49347675
0.013426236,-0.56967247,0.5100422,1.0892346,0.6551409,0.24774389,1.6815931,0.48522827,-0.36367816,-0.78488755,-0.06639781,-1.1541351
0.3715123,0.5963477,0.80394465,0.14549433,-1.1805228,-1.4891773,-1.541128,0.6519845,-0.9361749,1.5047097,0.25178203,0.79369724
-0.37249434,0.111634105,0.73836523,0.945439,0.17264037,0.41359708,-0.57497066,-0.38630885,-2.230615,-0.95082325,-0.55609214,-1.0237411
-0.6810816,0.06281744,1.9209051,-1.8427517,0.89302033,0.32899728,1.4946126,0.75448316,0.97860956,-0.47290704,2.227577,-2.1200573
0.026171371,-0.44919765,0.28271064,0.06927697,0.65723145,-1.8428161,1.7927912,-0.25201872,-0.057451822,1.2667736,-1.3359911,0.3537001
0.41502327,-0.5624371,-0.83559096,1.6491504,1.0685391,-0.960914,-0.59675246,-0.82395005,0.7359428,1.5853775,0.11527685,-0.72262967
-2.2999425,-0.6458301,-1.6148626,0.048146658,-0.22197945,1.0302905,0.4134616,1.5804467,-0.24923083,-0.45490205,-0.022300009,-1.0184191
0.3587278,1.1680549,0.74409235,-1.9686991,-0.049729683,-0.042425502,1.8545191,-0.21945612,0.27047637,1.6895499,-0.43588987,0.91860765
-0.90060765,-1.541671,-0.5641957,0.17399889,0.5370849,1.2815683,-0.22190683,0.60952014,-0.8378387,-0.44099522,0.18820167,-1.1481918
-0.34962323,-0.63064295,-0.16488183,-0.6346181,-2.3891122,0.29203427,0.86495066,3.085113,-0.11550264,-0.033721082,-0.8588237,1.8797123
0.6819696,2.1483116,-0.25125036,-0.53916305,0.08292709,0.5942915,-2.2254963,-0.0017785862,0.032081712,-0.011705366,0.9903153,-1.6458532
-0.1915464,0.66618466,0.98969644,-1.1522627,-1.420416,-0.9281172,-1.3134564,-1.5045911,0.9055622,0.88770396,-1.3377571,-2.412828
1.3750868,-0.119745485,-2.0616722,0.23015097,1.6325238,-0.69649065,-1.3068995,0.209944,-1.455542,1.659444,1.830298,-1.7826273
-0.33817312,0.2481868,0.81425494,0.08564803,-0.8118793,-0.4155693,-0.16032308,-0.9573883,-0.15240332,-1.3663497,1.1796464,0.22399043
-1.1516459,0.061639063,-0.9627037,-0.8501087,0.78385943,0.10556505,0.13024889,0.12724343,-1.3083986,-0.9450646,-0.25076717,-0.8499481
-1.7866594,0.7508301,0.5439445,0.56953585,0.27917695,0.750412,0.057166312,0.45612717,0.545273,0.076629646,-1.0667357,1.8657353
0.5843132,-0.013484596,-0.14251438,0.96342576,-0.52494514,1.3481067,1.4956536,-0.30736035,1.0718626,1.3153076,-0.4813224,0.683702
-1.8173096,1.0432576,-0.5878837,-0.55023575,-0.05108426,-0.86587375,-0.28729498,0.74063337,-0.6766496,0.8603504,1.7144328,0.22426507
-0.48858267,-0.4376354,-0.32200965,1.6239895,-1.5369927,-0.77131253,0.41976798,0.34905288,0.26745594,-0.77168167,0.9262774,0.41351292
-3.289754,0.7408686,-0.7078083,-1.3815924,1.6944362,1.0871063,-0.23675804,1.0672667,-0.31694305,2.4822502,1.2681637,0.15696207
-2.8938937,-1.1438713,0.3962665,1.9312445,0.6856521,-0.94595927,-0.9803697,-0.0896008,0.5174804,0.066934116,0.6133368,-1.6756333
-0.9264448,1.4973824,-0.750405,0.54717845,0.19527107,-0.75224227,-0.19565052,-0.9686077,0.3842732,0.14244787,-0.22525327,0.48048544
-0.55162424,0.36853823,-2.7695901,-1.3820969,-0.43529472,0.20060982,1.4958031,1.7013327,-0.34883505,-0.9059967,-1.540677,0.6604292
2.1224074,-0.833979,-0.8095053,-0.23955368,1.1169715,-1.6062219,-0.9076358,-0.10829641,-1.6895467,-0.13276,-1.4089028,1.0159266
0.83744586,-0.5945925,0.010877774,0.40653455,-0.9056842,0.50047797,-0.11689198,-0.52239406,-0.70109147,-0.5222421,-1.0708414,0.9982016
0.4477645,0.8731371,-1.0995121,-1.4426632,0.5680498,-0.33349758,0.5861174,-0.39582914,-0.45522934,0.15558176,0.48148283,0.41121253
0.13825178,0.051219344,1.0339897,1.0053389,0.8765337,-0.47064716,-2.1375942,2.072161,0.73400116,-1.8164992,0.60240746,-0.68069744
-0.010735068,0.60195535,0.26652563,0.32779333,-1.0275605,0.343684,-0.22933255,0.5589775,1.0508348,-0.831728,-0.30767742,1.7480862
-0.20189273,-1.0512192,0.7575408,0.75526226,0.31113887,-0.7831436,0.11249579,0.74770856,-1.0415602,0.8212391,-1.1328477,1.9062029
-1.4491916,-0.233284,0.5044561,-1.011762,0.21340907,1.0458702,-0.76376134,-0.48647547,-0.917105,1.2395176,0.84582627,2.2341704
-1.574926,0.7246511,-0.06651091,0.07812951,0.62421525,-0.10292649,-0.19864424,0.6767193,1.4315395,-0.15983735,0.4398916,0.8240809
0.17465977,0.2587174,-1.0319624,-0.40207458,-0.5402008,-0.06522782,0.40374845,0.962561,1.0820346,1.3137115,-0.2506797,0.7060621
-0.48784608,-0.5745353,0.10780913,0.21998325,-1.3093762,-0.34887904,-0.17490965,-0.0072854054,-1.0457414,0.31509084,-1.2625538,0.7112491
-0.7724167,0.6708773,1.1492493,-1.2055186,-0.6181279,-1.1539521,0.21972768,-1.4997922,-1.439824,0.4209311,0.029471885,-1.7992388
-0.9539778,0.8584026,-0.19685294,-1.0472101,-0.86732733,0.6922906,0.6794032,-0.6262638,0.65971893,-0.50595045,0.14420475,0.2048404
-0.71376693,-0.2378951,-0.8879927,-1.9013045,0.095909394,0.46581158,-2.1810722,-0.11578933,-0.9079843,-0.20066912,1.6541264,1.0647329
-0.13806963,-0.008987263,0.00019719097,-0.29835543,-0.42372036,2.5380766,0.6042762,-1.0113549,-1.8952831,-1.2502851,2.3000913,1.2870803
2.2809951,-1.4272758,-0.55355054,0.19202727,-0.15871929,0.42073813,-1.0013049,-0.8053801,-1.6384124,-2.143645,-0.8488173,0.8799597
0.83125955,-1.0126194,1.6136025,-1.0445462,-0.6782708,0.24842037,0.32123163,0.42298445,1.2115635,0.35665542,1.6510592,-0.009330927
-0.2633566,-0.7679886,1.3132133,0.25979042,0.7356779,-0.98080915,-0.1462723,-1.0697937,-0.18481192,-0.23717992,-0.49150345,0.51966226
0.3555677,-0.6233084,-0.69023734,1.3038149,1.337953,-0.48216414,2.221038,-0.48320904,0.012588939,-0.23922291,0.032406136,0.8813223
0.59499717,0.75865334,3.185944,-2.282565,1.2362344,0.3868651,2.5810733,0.1148402,-1.7922462,-0.49968165,-2.146627,-0.8127837
0.1336186,-0.062872484,-1.4324999,0.013723887,-0.7644218,-0.14262807,-0.7202203,-2.3587925,-1.4068605,0.8386783,0.4099295,-1.2209687
-0.12238036,-0.0067211725,-0.11252227,1.7867203,-1.1523933,0.10723028,-0.44679317,-0.018001053,-0.34744433,2.1126308,-0.9899701,0.16838947
-0.7485723,0.048709385,-0.2608425,-1.0238467,-0.11901152,-1.4880238,0.60507625,0.40096262,-1.9340017,-0.72816485,1.1439326,-0.94321305
0.39600664,0.34590447,1.3095617,-0.4631238,-1.027052,-1.4141226,0.49816093,-1.4873406,0.97591215,-1.9783454,1.2255435,0.5874735
0.32424337,0.5386775,-2.3013191,-0.51323247,2.2811224,0.23107047,1.6445502,-0.74325013,0.3638395,-0.85528153,-0.38576186,0.06698621
-1.0935072,0.22566244,0.33592165,1.7940937,0.62405974,-0.8027017,1.6578226,0.60771257,-0.4211076,-1.0476232,-0.58072674,0.7688429
-1.5462554,-1.4463497,-0.8446743,-0.3990608,-0.9206692,1.6731917,-0.050860025,-0.1994247,-0.080773436,1.4975121,0.83163244,0.24244006
0.15466084,-2.2115448,-1.9734784,-0.20859554,2.3725839,1.5436975,-1.681506,-0.43279284,2.339052,1.05325,0.6573901,0.102821544
-1.487723,3.5027363,-0.37821227,0.1458918,0.31490216,-0.033462152,0.75426644,1.780159,0.06632819,-0.13285884,-0.40767735,-2.3758905
-1.1199518,0.21461004,-0.12234273,1.4887252,-0.36842704,-2.0172322,1.4529995,0.8522447,-1.3304977,-1.1627626,-1.2441833,0.21309884
-1.5337286,-0.38619316,0.9433255,-1.171215,-0.16929787,0.51398665,-1.3911229,0.12231107,1.3733404,1.5254174,0.4108135,0.20925501
0.08513341,-0.13583994,0.49853188,-0.5740103,0.603127,0.16099674,-0.3624591,-1.0235462,0.4375469,0.982413,0.16767833,-0.5557017
-1.3982048,0.17600086,-0.28173438,0.2752296,0.014315117,-0.124470405,-0.83696556,0.6876878,-0.42058885,0.32205936,0.3106495,-1.0015751
0.16322124,-0.7275863,-0.99178565,-0.7203935,0.5742489,-1.0192639,-0.2190032,0.07692556,0.5068889,-2.0656815,-0.19338065,-0.093806155
0.22344846,-1.5740056,-0.6910414,-0.47901294,0.72061926,-0.02862856,-0.51835,-0.012620692,-1.3480917,0.29153663,0.6708359,-0.014920241
1.7929221,0.88847476,0.5906878,1.4140528,0.5217867,-2.025127,-0.7730308,0.48885515,-1.1243734,-0.4131395,-0.3272949,-0.8290304
0.60277617,0.5203592,-0.093569115,-0.08785088,-0.72813743,-0.009796153,0.18972997,1.0521729,0.19208792,1.1176711,-0.61407214,1.2708398
-0.77647233,1.1854268,1.3448749,0.26057732,0.14162768,-1.749427,0.11416979,-1.1809962,1.9235525,0.813872,0.021545477,1.3286066
0.37528843,-0.568096,1.3988819,-1.1331587,1.6135745,0.10807054,0.9533533,0.96029335,0.4469481,-0.9274173,0.5778881,0.26617613
0.31434405,0.33702224,-0.89612126,2.356164,-1.5582381,-2.0533595,-0.4802774,2.3162436,-0.6367758,-1.1431,-0.85639817,-0.9921747
-1.0896757,-0.45041478,-0.70232755,-0.13113618,-0.2282818,-1.4535781,0.7214523,-1.6537211,0.13469045,0.45048633,0.17208017,-0.17086223
0.12279517,0.16795497,1.1742518,-0.016129158,-1.3820491,0.17884004,0.67367613,1.4235559,-1.0441833,0.98494583,-0.35112044,0.35269517
-1.5971426,0.014592909,-0.32608733,-0.387683,-0.54586923,-0.16617942,0.92286485,-0.6178697,-0.9234454,-0.678062,-2.092295,-0.7632255
0.49434453,0.34150648,0.02488456,2.4285645,-0.06310665,-0.81219643,0.64415807,0.5561844,-0.85355955,0.85997534,-0.35205555,-0.2742142
-0.47392768,0.70545727,1.113078,-0.41386187,0.3272717,0.39701307,-1.4244143,-1.4992007,0.5564733,-0.5165835,0.49506548,0.5239035
0.6411979,-0.59475136,0.6890501,0.5772498,1.0010786,1.647925,-0.8014521,0.09187672,1.4187707,0.96083945,-0.010885409,0.9317633
-1.1472831,-1.2753323,-1.496592,0.15257719,-1.2033429,1.4846195,0.70321923,-0.3331559,-2.4358258,-1.4571829,-0.34568906,0.5359349
-0.6524,1.6271027,-0.50017166,-0.42696482,-2.2067642,-0.3717449,0.1192618,0.8783077,0.106667414,-0.9922589,0.07430976,-1.0957819
1.3790371,-0.101850994,-1.3431913,1.6396633,-0.724136,0.6217289,-1.6158725,1.2600747,-0.42012805,-0.98247075,-0.81504375,-1.2550076
0.52395254,0.27000764,-0.013038479,0.37641034,-0.24429946,0.8552357,1.391746,-1.2611904,-0.14388211,-0.4948999,-1.5714828,-1.1549454
0.733639,-1.9830569,1.2076552,1.1031221,-0.5960341,0.68131995,-0.5008111,0.7813747,0.46234924,-0.90828604,-0.40669894,0.2500308
0.9406912,1.5168259,-0.91677743,0.0628065,1.1688722,-1.6702915,-0.07214889,1.1050692,-1.0711412,-0.2063129,0.99898875,-0.967815
-0.31381592,-0.3060287,-0.85325307,0.8059074,-1.3497139,0.6715491,1.5012273,0.08417289,-0.4233505,-1.394004,-1.0091993,0.04561968
-0.21142888,0.5309189,-0.14597914,0.064583264,1.2292044,0.479645,2.519658,0.6725535,0.24241185,0.6198842,-0.70475245,-1.2098808
-0.020578332,-1.4124104,-0.8214929,-0.9880227,-0.115652464,1.023971,1.7815664,0.42522398,-0.29705355,0.24538396,-0.98938435,-0.7258855
0.7967493,-0.43753886,1.6298637,1.58462,1.4932652,1.7964911,0.37448457,0.18131901,-0.8809954,1.2987486,0.089327246,0.0720938
-1.6098537,-0.21302047,1.8165714,-0.20619403,1.8172294,-0.74116135,-0.75551856,-1.2307904,-0.18951792,0.1803205,0.29005393,2.1518257
1.5806435,0.680831,-1.5009093,0.28070426,-0.5537503,-0.44171304,-0.18331309,-0.42461482,0.7315047,-0.9196121,0.76611626,-0.029378517
-0.25329447,-0.16449659,-0.7745782,-1.141914,-1.7359381,-3.3616247,-0.7887047,0.3006306,-0.56536835,1.6510674,-0.5265822,0.75807726
0.14788887,1.2278748,1.6498586,0.8021057,-1.7816304,-0.08512781,1.2794964,1.2266418,-0.083294585,-0.59356755,-1.1770768,-0.5124853
0.75889194,0.9763249,-0.95818436,1.0663437,-0.07055031,0.55216855,-0.17647979,0.5319301,0.6900737,0.8878949,-1.3690249,0.07627967
1.1952838,-1.8918538,1.7058134,-0.4507255,1.4752282,0.29507485,-0.5999012,-2.1817405,-1.2917978,-0.10326771,2.4410648,0.72291607
0.73066115,0.9284963,0.9503238,1.7116823,0.9465494,-1.0338538,-0.60867167,-0.78458893,1.4599706,0.02379022,2.5342531,-0.17812827
2.1152244,1.9565322,0.60920215,-0.46922275,1.6796877,0.56248254,0.87799525,0.6146333,-2.2457016,0.6553205,0.75944775,-0.2429662
-0.5061216,-0.11845125,-0.4960573,-0.7484957,1.91968,-0.7790576,-0.8103964,-0.24871981,0.22268401,-0.546979,0.22330934,1.8477591
-0.11340612,0.7309996,0.9279384,-0.7116733,0.66998136,-0.6100834,-0.8157015,2.0104952,-0.112469174,-0.44471377,0.25445724,-0.9345714
-1.4492611,-0.44060737,-2.2570937,0.97370803,-0.37164593,0.9769772,-0.12619998,1.2366434,0.6767739,1.2187009,0.46019992,1.1609607
-0.7111452,0.021210227,0.97248113,2.2353814,0.25968552,-1.0298978,-1.0418245,-0.84099776,1.5587965,-1.5198178,1.3284292,-0.5487449
0.072872646,0.17964268,0.5455476,-0.34903345,1.0839192,0.49649543,-1.3687067,0.512184,-0.6042135,0.13205788,-1.5092323,-0.038386215
-1.9446572,0.3157761,1.4416224,0.72571015,1.9680306,0.1625932,0.06353235,-0.5298401,0.064721115,0.06290592,0.89965457,-1.0375822
0.51125854,-0.39336467,1.0078399,-0.47713137,-0.28996712,-0.3346506,-0.7225092,0.004561992,1.1874627,0.6941447,1.3575777,0.5812782
-0.34088176,0.80691016,0.6828443,-0.6062835,-1.072876,0.6446367,0.11881118,0.21725222,-1.5649359,-1.1931065,0.22471008,0.26666543
0.58042777,-1.0390122,2.2051206,-0.8957038,-0.41390678,-0.7783335,-0.33594558,-2.172419,0.75234973,2.187813,1.4047322,2.99571
1.8360612,-0.7065846,1.4094586,-1.2512686,-0.68236595,-0.93762094,0.3560729,1.2274271,0.4555693,0.12820129,0.06662335,0.6517538
-0.7753359,-2.6010942,0.9868443,1.033176,0.08291515,1.3428673,0.106252514,-0.74486107,-1.0755005,-0.47457162,1.0576922,0.0017406871
-1.7156084,-0.365993,0.9090373,1.4359559,-0.5555724,1.412268,2.0680168,-1.8803487,0.29057994,1.1129682,0.56012243,0.2504269
1.3804976,-0.5213646,0.86298597,-0.3511116,0.74708474,0.9159915,-0.48269784,-0.22166236,0.015869888,0.30158678,-0.4456023,-0.2559192
1.1681573,0.06435939,0.5603219,0.05104842,0.24728583,-0.47436282,-0.00897486,0.5278432,-0.120358855,0.49941173,3.26946,-1.1988903
-1.3085566,-0.7308436,-0.35862884,1.3556818,-1.7887766,0.97428405,0.9452882,-0.021435637,-0.31630895,0.88748854,2.150886,-0.0866583
-0.51761466,-0.15700191,1.6910937,0.19690236,1.4022404,1.5343337,0.21600258,0.9746543,1.7891611,1.2345394,-1.1616899,-0.6111997
1.7472358,0.44423363,-0.038054805,-2.6926055,1.2646544,-1.6534,1.7748194,-0.71991205,-0.47192943,0.27532756,-0.16041824,0.28184712
1.2195505,-1.010555,-0.9526678,-1.1470672,-0.12758881,-0.028234258,-1.449202,1.2751966,-0.15959655,0.3573308,0.7205088,-0.7099727
0.31802323,-1.545223,-1.2457942,-0.029419202,-0.018020472,0.27471372,0.62101763,0.52023554,1.1496967,-1.059722,0.64935005,1.2709624
-0.12954691,0.29232487,0.37009746,0.21237932,1.3850296,0.23378089,-0.72495604,-0.5651825,-1.206215,0.006125779,0.32681194,1.0401821
-0.9464568,1.1866769,1.3330754,-0.51350856,-0.6644079,-0.095701255,0.4812403,-0.14959705,1.3489345,0.14461444,0.9018458,-0.5388863
-0.43595433,-0.8386801,-0.7971499,-0.48115006,0.47588038,1.4027736,-0.38409087,1.4381956,0.6175661,-2.8516083,0.73853594,-0.7401216
-1.6475728,-1.400907,-0.58859134,-0.83253944,-1.0609871,0.9948802,-0.69770175,0.24128574,-0.72144717,-0.5694491,-0.30716762,-0.6581257
0.62919164,-0.71827334,-0.5037245,-0.043887448,0.38721168,0.52718055,-0.065130234,-0.22604997,-0.048340112,0.7830617,0.08047483,1.5652267
0.18989968,-0.9446492,1.4242762,-2.5026877,-1.7237604,-0.5720892,0.17006662,-0.027810713,0.30071488,-1.8222952,-0.5102637,0.7078816
-1.1155231,-0.9140108,0.19868092,-0.15062103,0.18529876,0.07890899,-1.5909915,0.83892983,-0.48385838,-0.6187452,1.6899265,1.8313053
-1.2807326,0.6311023,-0.20877144,-0.58725595,0.5779888,1.3658286,-1.7931073,0.4264423,-0.4273865,0.08282222,0.5654472,-0.24454471
-0.34860256,-0.72172934,0.19189028,-0.0748889,0.62284136,-2.906363,-0.3934919,-0.6218581,0.11159314,-0.34383315,-0.94547486,-0.35388944
0.8420319,0.5158366,-1.4310331,1.9576834,-0.20372865,0.6231923,-0.7242454,-0.4676569,-1.3888648,0.6359187,-1.246532,-0.78339535
0.9209131,0.7279793,0.17944936,0.70383865,-0.8199483,-0.5367481,0.90473425,1.1991429,-0.4868618,0.077630304,1.3296431,-0.830171
-1.0369238,1.1599563,0.14498752,-0.6793148,0.038044017,0.9957599,0.39055943,-0.80655515,1.4590628,-0.0280126,-0.017297948,0.38738373
1.2299271,0.03843129,1.3299098,-0.7456084,1.1127381,-1.1523509,-0.08899993,-0.36444306,0.39694566,-0.050149776,0.072462104,-0.27263418
0.5515342,1.3157696,0.25379565,1.0132465,0.5245331,1.3574203,1.49399,-0.13920778,-0.36648408,-1.3320868,-0.26175988,0.63633
0.20041691,0.09695758,-0.728965,-0.088112205,0.19979183,-0.7137569,-1.4501237,-0.38718706,0.71595246,0.15445901,0.34328404,0.15707335
-0.55808103,-0.32674542,0.70281196,-1.0648279,-0.67742985,0.20506701,-0.37647766,-0.6999556,-0.35290655,0.6748696,-0.48918664,1.3881215
1.042135,0.7358721,0.36459604,0.31411874,1.398667,-0.06320693,-0.76777923,-0.341752,0.38369787,0.1257867,-0.21374187,-0.20210238
0.75494874,-1.8035029,-0.59786123,0.3005476,-0.10805403,0.41058,-0.16565521,1.1619072,-1.0286855,-0.24144848,0.5373732,-0.9371174
0.80123574,-0.68658024,0.89819235,0.36255783,-1.7130089,-1.5183524,0.8317758,0.30527857,0.66282314,-1.0939443,0.30258277,1.1375849
-0.22626492,-0.7348371,-1.0309813,-0.648338,1.4408673,-1.4153078,-0.43332914,1.2101036,-0.10003454,0.8580625,0.52780646,0.984182
-1.3014295,1.2202685,-0.4442742,-1.5808961,-1.7272695,1.3598303,-0.31890014,-0.9078201,-0.55393386,0.5796111,-0.00066328014,0.41215917
-2.0246038,-0.10878488,-0.64412254,-0.9317531,-1.6809926,-2.659543,-1.3715628,-1.5839494,-0.27475268,-1.2634346,0.56399,-0.6888006
-1.0376254,-0.06833163,-0.5468144,0.80394006,1.5642209,-1.9360918,-0.022081545,-0.06381984,0.9706384,-0.87468106,1.386607,-0.6060194
-0.22661312,0.6480344,-1.6258092,0.54895216,-1.6379853,0.5717772,1.0170146,-0.6471936,-2.0318422,-0.37485227,-0.14740269,1.22895
1.0729884,-0.2230912,1.104268,-0.012164158,0.04197295,0.37416682,-0.7879949,-1.2948699,0.52888733,-0.35515782,-0.08671772,0.5390088
1.0897088,1.6420386,-1.6054056,1.3337356,-0.8405628,0.43650296,-0.7319331,-1.6876489,1.4453189,-0.695934,-0.2996391,0.2278848
0.841988,0.77332634,1.2225406,-0.64888036,0.3137757,0.607437,-0.27290165,-0.42035058,0.29583612,0.38589567,-0.8462916,-0.59179884
-0.4068273,0.95106316,0.25215268,1.4681475,0.97982126,1.397387,0.52243906,-2.5329406,-0.9305076,0.08657355,-0.6453942,0.50868046
-0.6849877,-1.1497263,-0.032664426,0.51364166,-0.6348179,-0.5295807,0.65155333,0.95950204,0.81847554,-0.30231678,1.8102586,0.6139403
0.11347302,0.90011525,0.8258522,1.4126607,-0.32823533,-0.7234702,1.8860229,-1.5647627,-2.2163308,-0.9839739,-0.8713522,1.1900225
0.9035229,0.09487728,1.9248949,0.14885654,-0.59349924,-0.50250536,-0.3437493,-0.52621716,-0.27887383,0.5869849,-0.76340574,0.20819171
-1.7436271,-0.28190517,1.1864241,0.66053605,-1.5482175,1.2133716,-0.22553618,0.7217479,-0.34434333,0.48538604,2.5624874,-2.1474528
-0.36816847,-1.0720209,-0.7055988,0.45732605,-1.1996219,-0.2783852,-0.09842343,-0.7704442,-0.6224816,0.2117853,-1.8558873,0.5151775
1.4558744,-0.62733734,0.41440296,1.1004932,-0.86809033,-0.15766881,-1.6003288,0.008973672,1.5106711,0.15766463,0.84180385,0.82235646
0.32060224,1.320047,-1.54456,-0.2574941,1.4397259,2.3437502,1.7013618,-0.8866253,-1.373125,-0.18566337,0.201459,-0.37221178
0.79777646,0.25360847,-1.0935727,1.1814123,0.8191278,1.0165185,-0.9686089,1.2638701,0.5802088,-1.0048199,-0.8070636,0.89264226
-0.119671054,-1.5392556,-1.0298566,0.36252114,1.2352157,0.25987884,0.82546216,-0.5936149,0.575037,-0.03696766,-0.45125994,1.8394842
0.88308823,0.014570877,1.2988765,1.1358534,-0.55093956,0.16695619,-0.762823,0.83136857,0.376845,0.40253404,-0.17208704,0.06742806
-1.3602295,1.629982,0.049083818,-0.48119324,0.917322,-0.21586749,-0.6508412,-1.1569663,-1.0054275,-1.017503,0.12761137,-0.29526344
-1.0612668,-2.3976603,-0.41402036,1.0908962,0.38141286,-0.34015912,-1.6964519,0.56106436,0.20623632,-0.9071815,0.31616592,0.2749387
0.31390554,-0.9424213,0.96936387,0.62125003,1.0829362,-0.99116874,1.348281,1.5550078,0.12089389,-0.5345781,-1.637334,-0.9097615
-1.3935759,-0.48127636,2.3096278,0.855268,-0.2427176,1.6764897,-0.5230626,0.41681585,0.42121023,0.6455784,2.5291796,-0.7925469
0.09657585,1.072567,1.5228052,0.05414012,-0.5283108,0.18183474,0.63192713,-0.2818713,-2.0609214,-0.49853688,1.0102744,-0.25694066
1.6090283,1.260131,0.3989024,1.221153,-0.6115835,0.40230158,0.876871,-0.57619935,-1.5327078,-0.4293946,0.9027461,-0.7580308
-0.21935637,-1.1677278,1.33305,1.165435,0.9577577,-1.0107707,0.33187017,1.3780472,-0.88928574,-0.8170584,-0.8315479,0.8495345
-0.9418987,1.269479,0.66579145,0.04098541,-0.11760726,0.48529845,0.19209386,0.035192918,-1.918334,-1.1078662,1.7531551,0.36732405
-0.07736327,0.21170603,0.15210468,0.060656667,-0.76457095,-1.2590413,-0.33068258,0.85912234,-0.13566089,1.1336659,-0.5624446,-0.0066155917
0.3967442,-1.0503972,-0.16540125,0.97669864,1.5268645,-0.9061794,-0.47851434,0.18893233,0.15197775,0.7805761,-0.9423865,0.8447246
1.1275948,-0.68884104,-1.2784476,-0.5900818,1.3563224,-1.4346076,-0.0135917915,-0.50064665,-0.29229173,0.1386004,1.110102,0.070616886
0.64169985,0.08119593,-0.36301744,-0.66364485,1.7750126,0.9197542,1.4468855,0.45349428,0.20566894,-0.77005005,0.61838144,0.4525226
0.283904,-1.1068622,-0.38075596,-0.022542661,1.6482288,-0.56679463,-0.1730805,-0.01490941,0.83757716,2.110449,0.8520045,2.5898206
0.58681,0.34751233,-0.6629035,-0.5003225,1.0304276,0.0040426995,-0.6924313,-1.2273262,-0.13352267,0.9132464,1.419125,0.63763165
0.32901943,-0.3173592,0.31996557,0.68720657,1.1109631,0.7808276,-0.3950647,0.82160723,0.14746189,-0.78479564,1.897782,1.633082
-0.7463452,0.6688082,-0.94399196,0.22385016,-1.1353072,0.64145887,-0.687576,0.7999243,-3.16796,-1.1382058,3.1510203,1.6470559
-0.62317497,1.2606401,2.084684,0.46554118,-1.2407839,-0.6616949,0.5217667,0.18633217,-0.049948297,-0.83861756,-0.4171099,2.8096967
0.55751723,0.8494401,1.1112434,-0.90871304,-0.4490023,-0.3594599,-2.109407,1.1320302,0.5152163,-0.73267883,-0.077292494,0.9363752
-0.6105392,-2.1346874,1.2761196,0.19607684,-2.0495698,-0.39377263,-0.04291164,-1.2932853,-1.0101819,0.9682146,0.40523094,0.049051166
-1.2706219,-1.0869572,-0.558761,-0.19886862,-0.17625687,0.35565892,-2.485213,0.44137192,0.26050922,-0.107326955,-0.0389663,1.2159859
-1.0493519,0.5319062,-0.17909063,-0.50456,-0.48780075,-0.39578354,-1.3382784,-0.41398293,-1.8278685,0.63295,0.74675936,-1.2714242
-1.6611303,-0.5467884,-0.7441641,0.003591233,-0.10672057,-0.76750803,-0.710448,-1.1813998,-0.28499207,-1.0858399,0.00083317485,-0.33346498
-0.35283342,0.6075923,0.28232414,-0.77727854,-1.0097522,-0.36424676,0.62483066,-1.5718441,-0.9584234,0.77640337,1.017231,0.147501
-1.3859793,-1.1986912,-0.5452516,0.5425579,-2.607504,-1.1094671,0.58900315,0.26896128,0.76619583,0.19072846,2.460549,-1.0424621
-0.6894864,0.5356741,-1.0461059,-0.38728908,-1.9390633,1.04095,0.16357955,0.2656937,-0.96475244,0.93560356,-1.5662516,1.2910386
-0.46702644,-1.3735832,0.7797,-0.13009539,0.7178083,-0.63083524,0.7390567,-1.556666,1.0162307,-0.43539163,-0.5833381,-0.795202
0.9923219,0.17868638,1.2820126,-0.53943676,0.40907824,-0.38415828,-1.2585481,1.4125483,0.54573476,-0.80364734,-0.529257,1.4720589
0.082937054,0.29611903,-0.00044834224,-1.0832292,1.8431319,-0.6808741,-0.24515949,0.26148993,-0.32841966,-0.49476254,-0.5104528,-0.31883913
0.44901562,1.3631451,0.5991819,0.23586003,-0.13341175,1.6657629,0.88135886,1.9962234,1.3071629,0.18947136,-0.054372814,-0.13431472
-1.0840465,0.8343973,0.21458277,-1.2566454,1.0207095,-1.7070873,0.07346849,0.59226763,0.5724866,0.2843544,-1.0829483,-1.1830925
0.122763544,2.2977269,0.35868979,-0.16417389,0.92643493,1.7091385,1.799352,-2.1707287,-1.5439156,-0.62218344,0.85876167,0.9026021
-1.3224598,-1.4103531,-0.7363521,-0.7076174,-1.4712074,0.59712034,1.0774132,-0.12869863,1.0818102,-1.1835049,1.8734251,0.7577986
0.7135477,-0.90359485,-0.3757371,-0.76527447,0.08362836,0.681001,-0.6987831,0.58214605,0.79002553,-0.2351364,0.24783231,-0.7757798
1.7661331,0.7702357,1.4786512,1.1622803,1.7797055,-1.202785,0.73785967,-0.23670225,-0.44986516,0.1832579,-1.3303864,0.030199789
-0.9175825,0.65110093,-1.2657835,-0.4950185,0.0672436,-0.54836756,1.4879699,0.117695,1.2470028,-0.9439592,0.8919517,0.21311283
-0.11747823,0.88381565,1.3776821,-0.07306245,-0.7265574,2.3479578,-0.45850697,-0.8941599,-0.27996713,0.7761512,-0.7974712,-0.42855537
-0.31353205,-2.2499394,0.96904534,-0.5411923,-0.70774966,0.95460033,-1.521527,-0.76064783,-1.5285764,-0.6071801,-1.4638245,0.36195028
-0.6418605,-0.6506791,0.9104387,0.1807464,-0.7350741,-1.4206487,-0.6461207,-0.51122975,-0.059224486,0.69991803,-0.32580918,1.302482
0.37232006,0.73644674,0.27594414,0.8342354,0.8649441,0.55991,0.042526003,-0.9633305,-1.3453618,-1.6362334,1.0784234,-2.1548522
-1.9986792,-0.5108987,0.07446172,-0.49035665,-0.18127367,-0.08053901,0.13295381,1.5091399,-1.2655189,-0.056902904,1.1225582,-0.31478032
0.2574895,-0.31553024,0.5447427,-0.40719855,-1.2047713,-0.563471,0.8100196,-1.4360209,-1.0395827,-0.8744604,-0.106280446,-0.10627872
-0.69812924,1.6791385,-1.2772119,-2.1573355,0.60500765,-0.65260893,0.3762857,0.5840026,-1.7413852,0.3471405,-0.5262643,0.25943527
0.10508009,-0.8634627,2.0847423,-1.3074113,0.59655017,1.5499572,0.940731,0.27245966,-0.16134939,0.46213847,0.34079966,1.4342133
-0.46493244,0.69002545,-1.117754,0.38762268,0.72574455,1.0680399,1.4890847,-0.58374727,-0.5723813,-0.08001363,0.1996644,-2.113569
-0.52208596,1.0164013,0.50062656,-0.33355036,0.33994392,-0.14268492,1.3903371,0.92793155,-0.6501333,2.6842308,-1.219758,1.4339027
-1.1828231,1.2618665,-0.03793323,-0.029972216,-1.0518439,0.8755126,-0.26542032,-0.9919771,1.1828833,0.072086066,-2.1355402,-2.058435
-2.433593,-0.3519685,1.4136328,-1.4416388,-0.6932102,-0.5319549,-1.2506267,-0.6877771,-0.18364246,1.8774743,-1.950942,0.7521357
0.6785593,1.7242299,-1.5348403,0.3723349,0.13829339,-0.21060237,-1.0706894,-0.2251517,-1.8180197,2.003371,-0.29685625,1.0275996
-0.7771742,-0.045980256,-0.42717397,-0.784202,0.8057958,-0.6726657,0.7763234,0.009383596,-2.2504652,0.363553,0.9403276,-0.67394596
-1.5462289,-0.9588623,1.4626114,-0.021026218,-1.8880115,-0.73294884,-1.8801934,0.31619558,-1.0368676,0.28483012,1.1470594,0.091861635
0.06294437,0.35859242,-0.03744444,-0.79413986,-1.757795,0.38459808,0.06130618,-0.7417186,1.415293,1.7240082,-0.6724093,1.3121774
-0.7568834,-0.5713825,0.7905287,-1.5797896,0.47343338,-1.6818914,-0.46850356,-0.6246109,0.4373679,-0.45312345,-0.9540518,-0.0115598
-0.09057607,0.34900072,-2.4152458,0.2112761,0.1660042,0.35251132,0.2112505,0.23986036,-0.950343,-0.6422262,1.6470293,-0.06523302
-1.1763487,-0.15043253,0.7763587,0.011737726,-0.21919908,0.10834612,0.99709326,-1.1001074,-0.07355937,-2.6090195,-0.40896773,0.2978367
1.620444,-0.07819135,-1.2586721,-2.4456832,2.4475276,-0.460373,-0.511978,-0.36581257,0.6514554,0.040241536,0.38552466,0.67648226
-0.6562304,1.4089184,-0.0019994464,0.9761546,0.9703657,-0.69389236,-0.33640918,-0.109576985,-0.9440745,1.4651928,0.7379351,-0.56247646
0.028965322,-0.46261352,1.1853181,-2.150216,-0.5110809,-0.7510748,1.0064157,0.06426032,0.73971534,0.48844123,-1.0059861,-0.59347194
-0.020013949,-0.16465794,-1.5069327,-0.34909508,-0.24709688,-0.6216527,0.3449296,0.48132154,0.57059956,0.22447579,-0.87376964,0.92442113
0.33783957,-0.28438854,-1.3762861,0.6517745,0.9994143,0.29436302,-0.32811144,-0.67203665,-0.43781734,2.089785,0.9217966,-0.7752919
-0.051496986,0.61975616,-0.68787473,-1.9533428,0.43563184,0.8578257,1.0053637,0.08282434,0.50523466,-0.67112696,-0.92413205,-0.79717803
-1.285937,0.43261844,-0.3928344,-0.2727477,-0.48457822,0.6059038,0.06947581,0.6826485,0.5294707,-0.30554503,-2.5176222,0.46402532
1.5651474,-0.37870497,0.16908339,0.70867836,0.45511484,0.6025106,1.208972,0.3597263,0.29321012,0.065127224,1.0076661,1.4013753
1.1858312,-0.5009183,0.84253144,0.05526877,-0.3511394,-0.25037584,-0.17001812,-1.6889896,-0.03968949,-1.3889982,-0.8069451,-3.3019536
0.8162121,-0.50297254,1.3816518,0.6705517,1.2449412,1.2076528,0.23330665,-0.022682374,-0.3942062,-1.7685623,-1.1492223,-0.11960568
-0.4942755,0.05806506,-0.99566096,-0.9827835,0.50594115,-0.77882344,-0.9919533,-0.08383203,0.37730342,-0.9836592,0.585943,1.0676471
0.4280817,-0.33822218,1.4808905,0.9596518,-0.9854736,0.8212507,0.2611015,-0.25263172,0.48482382,2.1667242,-0.79119295,-0.9376127
0.884814,0.21298562,-0.48991108,-0.79661816,-0.109389715,-1.6611924,0.067741014,-1.7466633,-0.55416644,2.1344278,-0.9855016,1.224665
0.0066837454,-0.85984385,0.41505787,1.4323132,1.2072667,-0.002381539,0.7911128,-0.53311086,-0.111950174,-1.691351,0.06769831,-0.14164557
0.034385137,0.2816825,-0.71151435,0.66673815,1.6679127,0.8963535,0.48195705,0.24755819,2.207549,-0.6627184,-0.9387233,1.2279099
-0.3022067,0.24118766,-1.7385521,-1.0811257,0.6220887,1.1943733,-0.13552007,0.6219278,0.70431435,0.26437253,-1.2279859,1.6289705
-0.9886309,0.26300463,-0.5101331,1.2466226,-0.81526756,-0.09437007,-0.09225075,-0.97673523,-1.6436459,-1.4356914,-0.25098062,0.6156553
-1.5855086,-2.140176,-0.58349615,0.026998868,0.22173299,1.4652605,0.6904596,1.0313786,-0.48951918,1.4492317,0.376379,-0.44805098
1.3488684,0.34729654,-0.38264218,-0.12414914,-0.73359185,-0.500715,0.93786514,-1.4666725,-1.6652062,-1.3784658,-1.4845862,-0.31830713
0.9903351,0.12911153,-0.30889875,-0.56866324,-1.9096922,0.017643888,-0.60038936,0.2885003,-1.175257,1.3605844,-0.8423585,0.8146859
1.1513088,-1.7626749,-0.86422455,0.19973542,-2.178905,-0.15171714,-0.3455011,1.2306064,-0.4005654,0.86579174,0.4119838,-0.4708305
-1.3837105,-0.4845474,0.83830136,-0.79734147,-0.5015845,0.25833222,-0.92059284,-0.0061947694,-0.7916302,-0.19961676,-1.1300504,-0.5969809
0.41778272,-2.21995,-0.32321465,1.3599931,-0.47748575,-1.947895,0.1370828,1.2852623,-0.4897839,0.6236448,0.28806475,0.33948576
0.7904636,0.5048038,0.49908882,0.8575111,0.067176424,-0.5813161,-0.18700503,-1.6412926,-1.418871,-0.5263829,1.7221241,0.2936931
0.7056743,-1.1737931,-0.06815067,0.75861275,0.035759926,-0.9931649,1.8694358,0.8437087,0.87397116,0.44176853,-0.26710412,-1.858062
0.61140597,-1.9564431,-0.5304629,-0.3448075,-0.09423843,-0.7665255,-2.6501167,-0.38403314,0.9467529,1.0083234,1.4037814,0.016317623
0.52082413,-0.15499695,-0.49839544,0.5827504,-1.9336405,0.96658224,0.704823,0.6178369,0.95656973,-0.65427774,-0.64265794,-0.83599555
-0.39907247,0.9120612,-2.1227696,-0.006930365,1.6223338,-1.0459045,0.493779,2.17473,-0.36097482,1.9849186,0.22403203,0.18439713
0.78879005,-0.8353856,-1.5670761,-0.5241855,0.96207285,0.6765137,-0.7989284,-0.20861638,0.060232896,1.0491556,-0.16955592,0.07829612
2.155022,-0.12775122,1.0263159,0.2196043,-1.1257542,-0.5162502,-0.49338567,0.15566757,-0.23269749,0.74134314,0.2495961,1.2238626
0.07841316,0.78618777,1.26142,0.32159728,-0.19607167,-0.64082223,-0.063125096,-1.0957497,-0.10741348,-0.47974166,1.0044278,-0.30343676
-1.5287441,-1.8852159,-1.2393312,-0.3671572,0.34067658,-0.95140535,-0.08068812,0.6439553,-0.05406578,-1.6994666,0.39527714,-2.2175198
-0.11367207,-0.1815435,0.20933343,-1.2504283,-1.2349617,1.1179961,-0.31380898,-0.9441764,-0.081115514,0.25064614,0.9250852,0.30776224
-1.4385787,0.40678534,-0.7171763,1.4985442,-0.64365476,-1.3624694,0.9615285,-0.046003766,-1.3368497,-2.0578272,-0.16585183,-0.59492785
0.87403554,-1.2266057,0.02223377,0.19219138,-0.13574567,-1.0210897,0.46601227,-1.2339928,-2.5948322,0.067462705,-1.3228301,-1.8638908
0.32030725,0.47875807,-0.65834945,1.2611401,1.0613189,1.0115014,2.6233141,1.8172718,-1.0863868,0.07507587,-0.5211671,0.18696488
-0.8541657,-0.15594114,-1.2577462,1.2134062,0.5387372,-2.7991767,-1.485468,0.061385103,-0.58196,-1.6822022,0.9734299,0.3021122
0.12391915,1.6587473,-0.8893325,-0.8675184,0.13246654,-0.49148765,0.17173485,0.44032255,-0.9448838,0.8392888,-0.5333902,1.4810457
-0.25175914,-0.581809,0.69416755,-0.22740692,-2.044626,0.53001475,0.10114729,1.0741031,0.5973906,1.5131446,2.2690446,-0.27402622
0.0040030484,0.9267473,-1.1010339,0.13687284,-1.0367154,1.0220948,0.25665998,0.11900123,1.1835431,0.99215394,-0.34126002,1.03287
0.64878184,-0.29685754,-2.000129,-0.27124423,2.1362102,0.18817577,-0.86732525,0.41191295,-0.24191396,-0.6161872,-0.55333364,-1.6386398
-0.65265995,-1.2236391,-0.80417806,0.14379072,0.17066807,1.5644612,1.2039527,-0.6831294,-1.1398392,-1.0745448,-0.22999826,-0.37622336
-1.1595099,-1.9299372,0.5182686,-1.4947536,0.52268493,-0.09250816,-0.88702106,0.5500652,-1.8446995,1.1851178,-0.5129845,-2.7899358
-0.43400997,0.77555585,-0.4586191,0.18430208,-0.70358443,0.9018457,0.0645093,-0.19151117,-0.43092754,1.3874817,-0.8596543,-0.611616
1.183178,2.173632,0.5436103,-1.7128898,-0.74959683,-0.9544021,-2.0204208,-1.8770846,1.4898775,1.019703,-0.5647034,0.7483149
-0.6919583,-0.58883536,-0.46775737,1.0666548,-1.1758028,0.4153253,-0.2195099,-0.27988583,-1.4505244,-0.8289597,-2.1007571,2.1528742
-2.279971,-1.9054046,0.9615191,1.3311024,-1.6216525,0.45201325,2.1751175,0.6777272,-1.2463349,-2.0385897,-1.595446,-0.12603031
1.105041,-0.19336554,-0.45566815,0.8722165,0.7270453,1.3935922,1.3078133,1.2431024,0.7518159,-0.49890277,-1.183783,1.4488682
0.47934273,0.19182944,-0.06500112,0.891851,0.4624922,-1.0869938,0.25024375,0.85926926,1.5064616,2.1436439,-0.5443596,-0.69107556
0.5480738,-0.43173003,1.1796876,0.529758,0.7332942,0.520368,-0.31001773,-2.320736,0.79711324,-0.27065197,2.8452568,1.0392851
0.91505617,-1.4167861,-0.8004672,0.9271346,0.116347015,-1.1117344,1.1040578,0.35926002,0.67263293,-0.3217997,0.80874044,-2.0477877
-1.4313407,2.0308254,0.42287287,-0.69061506,-1.2167906,-0.78498304,-1.4257983,-0.8617196,-0.78533113,-0.28467155,-0.6350215,0.4096079
0.49758476,-0.5813729,0.5685227,-1.1668807,0.43925288,-0.47118494,1.88939,1.3805006,-0.8554362,0.26596233,0.15666448,-0.60653937
-0.044757936,-1.3588436,0.2270361,0.586669,-1.3911294,-0.92778075,-0.6136151,0.9026739,-0.16051078,-0.9500875,0.47528517,-0.14314356
-1.3354088,-0.10180629,0.49006677,1.0430397,1.9665239,-0.97659886,-0.29432175,-0.61485165,-1.376058,-0.044274367,1.527389,0.89814925
0.5094071,1.0816317,-1.4769331,0.97090334,-0.7158345,-0.049172837,-1.6326529,0.80417323,-1.3191634,0.30972806,-1.074126,0.19359249
0.6280567,-1.5885413,-1.0985608,0.646448,1.585962,1.0013847,-0.5031793,0.3931973,0.3849455,-0.00404029,-0.36976758,0.8137203
0.44218016,-0.23599173,-0.10635231,2.0574346,0.12559696,-0.13571794,-0.6608757,-1.2089343,-0.23861828,0.35909417,1.0596937,0.2146041
1.5650803,-0.7470908,-1.4482905,-2.5829437,0.12165203,1.3816115,0.5758354,1.1976564,0.586616,0.68012226,-0.5871519,-0.53145856
-0.4807975,2.8167872,-0.5670974,-0.13461155,-1.1537381,-0.13327219,-2.4512298,-0.34695154,-0.87012637,0.44179937,1.3978221,-0.15864804
0.3166434,0.705122,-0.15300493,0.0941365,-1.1271545,-0.76223636,-0.11070106,0.35463634,-0.37639192,0.6437235,-0.54551804,1.2730621
0.78212374,1.4580786,-0.6361079,-0.9700094,-0.19893543,-1.2856251,-0.7691096,-2.8706672,-0.3186581,0.20775387,0.2755033,-0.9638662
2.4422693,0.8192037,0.1152262,-0.31320965,-0.8825589,0.6708999,0.23925045,-1.2878942,-0.8910005,-0.79832333,-0.3317985,-1.9778239
-0.105264716,-1.4433769,-1.4471899,-0.67822665,0.37068588,0.13794756,-0.5435801,-0.36421838,-0.18278064,1.8300836,-0.04743979,0.38295332
-0.062076822,-0.17138842,1.1814464,0.93324345,-0.5820325,1.55153,0.44581205,-1.0412111,-0.106256776,-1.1713322,-0.3863331,0.85901815
-0.6325622,1.9358457,1.3251685,-1.6017549,0.7961135,-1.7228096,0.72222763,-0.0019186314,0.96813935,1.8323492,-1.2113153,-0.8550136
1.7105242,-0.72606474,-1.1455579,-0.34607822,-0.98552084,1.8894082,-1.5757616,-0.24020436,0.47636667,-1.2966994,-1.0642588,-0.5189603
-0.47239283,-0.6327507,1.8264105,-0.35330904,0.40046343,0.090803824,-0.59741044,0.4479376,3.3506775,-0.037005175,0.8047994,-0.6794013
-0.16074218,0.3644257,-0.8470365,0.24412213,0.43377212,-1.8036828,1.2501782,-1.2867719,-0.4353011,0.5067375,-0.6144215,-0.19017678
-0.3209904,-0.6978778,0.02834727,0.9533343,-1.0531406,0.73660105,0.038662843,0.55575275,0.78405267,-1.1614708,-0.94382745,1.0654892
0.15889306,-0.7766728,-1.003095,1.0308555,-1.1528977,2.0333936,0.7575319,-0.48671946,0.21357456,-0.3974451,1.2349964,-0.5967901
2.502841,-0.30053523,0.99549323,0.35517582,-1.391987,-0.061896533,0.73696935,-0.0935147,1.5491842,-0.67147696,1.1665142,-1.1734672
1.4843224,0.47086766,-0.16490929,0.46720725,0.2593651,-0.7533831,0.42112458,1.2177405,-0.6338768,-1.545282,0.404077,0.47062895
2.0250487,-0.7928301,-0.71859235,0.5541682,0.8810308,0.27083597,0.025234053,-0.83588034,0.9373252,-0.10308104,1.4836022,0.16641362
0.99149066,-0.060451813,0.44297457,0.81223255,-0.5983015,-0.67523885,1.5695125,0.08875034,-0.6650125,0.750104,-0.8349027,-0.18317012
-0.8085191,-2.489934,1.1683357,0.7945538,0.2584648,-0.32368204,0.17817628,0.86252964,-0.3384926,-0.9676831,-2.7566147,0.18494631
1.2594633,-0.47496587,0.652347,-0.3686137,-0.65579945,0.61528915,-1.3459234,0.82584167,0.26024255,1.2571949,0.3873281,0.21229544
-0.97147655,0.13810651,0.772443,0.99386555,-1.0537589,0.9581225,-1.0220948,-0.6239026,-0.68439114,0.5048213,0.5285128,0.74847996
2.4858098,-1.3044599,-0.42156425,2.977531,0.21054587,1.2860221,-1.4444531,-0.018815065,0.34280604,-0.6027259,1.1502445,0.8938236
0.003516293,0.05468457,0.26197794,0.149654,-0.9957938,-0.9507109,-0.9225433,-1.3734335,1.4003977,0.33617702,0.58127326,-0.85141504
0.82977736,0.90577745,1.2312758,1.1262944,0.19517754,-0.8326937,-1.0813731,0.84539956,1.3423041,-0.6741147,0.608161,-0.48797882
2.8944697,-0.005649143,0.58705646,0.061113268,-0.7926333,0.9991923,0.74139166,1.2929833,0.5185521,-0.42340663,-0.14181821,-1.4181887
1.4044896,1.0985893,-0.38967714,-1.2037756,-0.16380842,1.6774997,-0.27179587,-2.090576,1.6866817,1.2978088,-0.006728587,0.45733157
0.095223606,-0.83821654,0.002014867,0.91525036,-1.2407789,-0.011644038,1.0720257,-0.5629453,-1.1928679,0.55546427,0.6046645,0.67400116
-2.0737846,-1.21728,-0.32707894,-0.38657895,0.7206672,-0.4505591,-0.15571229,0.5329419,0.19673106,1.1119303,0.532112,-1.377388
-0.18028893,1.0082585,0.26347226,0.05018539,0.43488514,-1.355156,1.2976907,-1.4088678,0.41455996,1.2939893,0.27653527,0.21434128
1.6697211,0.20317328,-0.58840233,0.76036584,0.10645619,-0.91311496,1.1232911,-0.0914901,0.7973556,-0.26406357,0.106143266,1.6657653
0.29346028,-0.043738984,-0.49550274,-0.22828498,-0.6631432,-0.056174424,-0.21664575,-0.89541566,-0.64565784,0.4078818,0.5594127,-0.4218652
0.8567744,-1.585539,0.9688999,-0.52310693,-0.8115894,-0.19203743,-0.2995385,-1.1144252,-0.76043355,-0.3079615,0.8057665,-0.64387923
-0.464684,2.302109,-0.6600042,0.010821285,0.18951447,-2.0398417,0.00063800055,0.32318813,0.08351866,-1.0638734,2.177523,0.871749
-0.15871029,-1.3491337,1.1406436,0.17461225,-0.6143284,0.97640306,-0.08470044,0.49979123,-1.3743806,-0.81217146,-0.24271755,0.8779241
0.35608703,0.8563795,0.63965845,-0.9489912,-2.4800637,-0.696918,0.30405253,0.108524725,-1.4110669,-0.058697194,-0.7423617,0.83701134
0.484261,0.16824006,2.0273874,-0.79075944,0.22350277,-1.6405214,-0.14828378,-1.2092059,-1.6478802,0.83619624,-0.15578401,-0.14643578
1.3512266,-1.3280609,-2.4467337,0.24274294,-0.9397019,-0.02593823,0.9123919,-2.5003784,0.2647201,0.6145777,0.042948354,-0.3894441
-0.24352382,0.4150432,1.1954093,0.12855597,0.386538,0.10406493,0.42244,-0.28103408,0.9032428,-0.37042007,-0.91987985,1.182107
-1.1007863,-1.0814227,-0.5990966,-0.16932552,0.24188551,1.085883,-0.80166304,0.1826621,-0.9096101,-0.41419294,-0.33315274,-0.8433425
0.69758797,-0.4497141,0.12106187,-1.2759635,-0.33222383,0.44845343,-0.84069145,-1.6827338,-0.061756082,1.1168808,-0.37815672,0.3360558
-0.4367496,1.5115901,-0.73062617,-2.1179745,0.33202416,-0.48269922,-0.6204446,-0.068459935,0.19511022,-0.04962928,1.2060016,-0.19207112
1.0558121,0.15777758,0.04641207,0.3369704,-1.7055415,-0.2986396,-0.113403045,-0.57999223,-0.13165724,0.7551218,-0.17157267,1.3181297
-1.2235372,1.3620964,0.6742494,0.819177,2.0357726,-0.53214633,-1.0225087,-0.76364404,-0.6725759,0.44990826,0.7215317,1.0196766
0.006737887,1.0383153,-0.6402466,-1.5290848,-0.74134916,-1.5282472,1.0759646,-0.8402125,-1.2548388,1.3134742,-0.74922454,1.2539891
-0.30277094,0.6921625,0.15797123,0.9266226,1.0006956,0.014485346,3.1168149,1.2665441,0.32163796,-0.21848553,1.4452485,0.2528888
-0.85425735,-2.672014,-0.08142481,-0.59875834,0.17720819,-0.8270532,-1.6978561,1.9457395,1.1045626,1.5478837,-0.70025927,-0.20880924
-0.17480515,0.61082554,-1.6395735,1.4536723,0.018720908,-1.0770888,-0.6355949,0.31458017,-0.7243529,-1.2093235,-1.7270283,0.39998162
-1.1541642,1.8161287,0.36085916,-1.0700663,-0.14216535,0.88210344,0.93913954,0.9035667,-0.3417212,1.4219866,-0.9443006,0.55159354
0.35012808,-1.4478445,-1.7676494,2.872739,0.41506785,-1.2649409,-0.66261643,1.454067,0.41467816,-0.49846673,-0.14191502,1.7203572
-1.3070321,0.04673112,-0.041307528,-1.6286414,-1.0722346,-0.5347905,0.89703417,-0.9346089,-2.1624765,0.29100654,-0.24351647,0.42691553
0.07570023,-0.62506986,0.5928573,-0.15609927,1.2846446,-0.28358898,-1.4435791,-0.7041799,1.2429457,-1.4567108,0.8026617,-0.48264244
1.1335918,-1.2059896,-1.0240877,1.9891746,0.57291573,0.45363498,-1.2552526,-0.5383474,-0.87163043,-0.010957665,0.20089637,0.27779934
1.9149193,1.527471,0.00063356076,0.25387678,-0.8432614,-0.22942995,-0.352106,-0.7642814,-0.6083167,0.027729485,1.2482929,0.5953488
-0.65674835,-0.23777376,1.5830319,-0.206861,1.3864101,0.65241975,-0.6073939,0.24799268,1.6959532,-0.57942647,-1.2180516,0.39211887
-0.74642164,1.0608331,0.5003493,-0.53097,-0.54168135,-1.6982558,0.6161123,1.0441177,-0.4769773,-0.16975456,-0.584712,1.929021
-0.597871,0.47438538,-0.95615673,-1.4339257,0.05925504,0.25595227,0.7901318,1.2643542,-0.7818007,-0.69360614,0.25542125,-2.0664997
0.635003,0.86933535,0.23612016,-0.63410634,0.93903553,-1.1180332,0.33391514,-2.0075078,-1.0952643,0.28211424,0.10091491,3.1107962
-0.921368,-1.4206687,0.3205775,1.0757396,1.1545087,0.4266487,-0.012927412,0.07967843,0.071744904,-0.85886776,-0.2504716,0.7168984
0.4807243,-0.9593158,-0.91668516,-0.83650094,0.38842848,-0.21495305,-0.34014258,0.4079645,-0.20554493,-0.20981938,1.1768576,0.54896647
0.7300316,-0.749616,-0.87591124,-0.99818236,0.7707025,-0.18115066,-0.7385172,-0.18979894,0.49968588,0.071927495,-0.014587091,0.32700807
-1.0213411,-0.347197,0.8671373,0.60550493,1.4467535,-0.8236557,0.2783384,-0.08294929,-0.07686545,0.487171,-0.7625085,-0.91265064
0.39351335,0.73261285,-0.006176776,0.79064244,0.37847883,0.065978594,-0.7002611,-0.71300626,0.9686626,0.1900166,0.57427347,0.3480707
-0.65776783,-1.6231923,0.458315,-0.7041678,-0.19506696,-0.56662023,0.598249,0.5982211,0.17209774,0.5082538,0.18266053,-1.4082271
-1.2728748,1.0841663,1.9668754,1.5568814,1.488715,2.6106906,-0.3168881,1.3356044,0.15550067,-0.5136686,-0.20019606,-0.84292245
-3.717854,-0.099949196,-0.27114502,-1.1327921,-0.17340825,0.6285461,-0.5408768,-0.042180296,0.028809238,-1.7982968,0.25590852,-0.82681024
-0.3664337,-0.39221448,1.8558946,-1.9017559,2.496406,-1.4426836,1.338286,-0.222022,0.4397253,-0.7393399,-0.72151285,1.8595675
-0.055545397,-0.6572022,1.427323,-1.7569058,-0.8747615,0.409127,0.5640613,-2.2663941,-1.008462,0.55548424,0.51665205,-1.6016833
-0.24648178,-1.7731816,-0.8655252,1.4483675,0.8554199,2.711842,-0.30743745,0.26309082,0.06906753,-0.706286,0.8859342,0.59565496
0.115335405,-0.9714147,-0.20410132,0.017953746,-0.36085162,-0.25689995,-1.9168109,0.27130935,-0.9895785,0.2579618,1.0051945,0.3376266
1.0950574,-0.11654536,-0.801313,-0.29192272,0.27297047,0.067653745,-0.5869375,-0.79875314,-0.6492241,-0.011071392,0.3483869,-0.04941837
1.3897007,1.4917384,1.2634861,0.2590932,-3.7453759,1.042239,0.14284259,-0.8343892,-0.73299736,0.52241004,1.9891706,0.53394884
-1.1562948,0.5175085,-0.018049587,-0.6142338,-1.577573,-0.65324724,-0.97367746,1.3437843,0.081211135,-0.13786088,-0.37388122,-1.8101287
-0.98566747,-0.877539,0.43100685,0.8055368,-2.0988672,0.9881483,-1.081101,-0.18326034,-1.0222969,-1.6070005,-0.82149243,-1.3113443
-0.56553316,-0.68611413,0.46873257,-0.14895573,0.5023042,0.1877724,1.5457841,0.26422623,-0.014087782,1.3238792,-0.38558868,-0.5862322
-0.5162664,0.5615502,0.048139624,-1.3034635,-0.91797894,-0.25966588,-0.0943949,0.083399475,-0.65211385,0.958941,0.40856168,-0.45343587
0.43422773,1.1773448,1.209974,-0.7926305,-1.8875309,0.44117683,0.119971484,-0.20161429,1.1858532,-0.5711703,-0.060887344,-1.6673441
1.0789409,-1.5265986,0.044217564,-0.5512433,-1.6221794,0.19633304,-0.64594024,-1.6408913,-1.1702121,-1.0330708,1.2465318,0.110154055
1.048936,0.21395577,-0.11650113,1.3248034,-1.5476422,0.15913329,-0.79681826,1.2852035,-0.09585599,-1.6749194,-0.08575583,-0.60602516
-0.41549137,-1.3226546,-0.89107454,-1.1058326,0.24092042,0.63485783,-0.57723105,0.84413624,2.2047293,0.2656819,0.26339146,-1.1585627
0.40422103,-0.48858,-1.6317551,0.48453456,-0.56329274,-0.7291967,-0.8805356,0.8881371,0.14238432,-0.5400399,-0.33570814,0.32572797
0.49308312,0.6958054,0.14710332,-2.6379707,2.1351624,0.9893222,0.7675936,0.7579573,1.5901744,0.07971258,0.55368847,1.1190459
-0.43889838,-1.8961802,0.32947028,0.6825856,0.552504,-0.68267727,-0.6028561,-1.8157114,-0.7921262,-0.8910631,0.37064925,0.79808563
0.23661062,1.1829892,0.36192387,-1.3026404,-0.93962175,-0.30218932,-0.07055164,-0.5125408,-1.8789722,-0.19280499,-1.2325397,0.61033756
0.36738724,-1.139401,-0.7789731,-0.12037163,-0.46399638,0.6866342,-1.2284287,-0.70011544,0.72999936,0.69180673,0.034652393,-0.8253834
0.6487884,-1.8877882,0.16146545,-0.81175,-0.809956,1.4199494,2.2520802,0.4127023,1.3250699,0.012294101,2.2144363,1.1740487
0.9794744,-1.1799963,0.027993428,-0.57945913,-0.43533468,0.5430045,-0.09559762,-0.16189912,0.06914499,-0.42728278,0.5289627,0.48114294
-0.006372557,0.98428935,-0.526147,2.490904,0.7000226,1.2390364,-0.32122773,-0.3176814,-1.0401605,1.0526356,0.6111482,0.7691849
0.41823003,1.0152237,-1.3984962,-0.5698105,-0.048087403,-1.9323646,-0.26532707,1.2940954,-1.3564379,-0.60556704,1.361023,-0.31039435
0.13118564,-1.693728,-0.30721685,-0.013132124,-2.1570013,-1.8062322,1.9166028,0.9798369,0.07517809,0.25157318,0.3723045,-0.6250922
-0.7800273,-0.5006026,-0.43074977,-0.6385609,0.9018946,1.1434915,-0.15621284,-1.6169854,-0.41412646,0.0047935154,-0.28433082,0.26875898
-0.22247851,-0.39230672,-0.046134233,0.40199745,-0.115335554,0.17836294,-0.8367749,-0.52988386,2.5032928,1.0834353,1.6556518,1.3437532
1.2947233,-1.2699314,0.9204961,1.6736883,0.3441628,-0.75438166,-1.5154084,0.98771936,-1.0824635,0.11809992,-0.018752543,-0.59365016
0.5296912,-0.47063345,-1.1299689,-0.39750645,0.67999107,1.4144555,0.8569359,-1.1359338,1.13717,-0.49530715,0.29458037,-0.76042885
0.18152578,-1.1324853,-0.48872292,0.3889631,0.5002983,-0.44893032,-0.8063856,-0.1871199,0.88443494,-1.6098922,0.13701682,1.8286104
-0.78193873,-0.59261656,-1.4682274,0.546598,-0.050277513,1.8263022,-0.42589492,-0.2767158,1.1023334,0.67932564,-1.3672851,-0.60402596
0.6739338,-0.65243167,0.61414707,0.013421409,0.9002336,-1.4246151,-1.4972329,-0.37701097,-0.7530076,-1.7071017,0.80727065,0.7961647
0.722065,-0.24664548,-0.33560702,-0.6625664,-1.4805034,1.1824362,-0.6030185,-0.23348306,0.0626651,-1.0789385,-0.5422923,-1.1470317
-0.10854487,0.24455059,-1.2852831,0.8275832,-0.34333274,1.1212492,0.22651115,-0.2573578,-1.4877216,1.7724315,-0.93265957,-1.0318072
1.7489371,-0.23809803,0.9067572,-0.88645583,1.2286724,-1.8326162,1.1951369,-0.5669916,0.81845456,0.44907397,1.5529405,0.64072806
1.5595813,-0.6519692,-1.0766891,-0.3659279,0.46085227,-0.03213149,-0.057674866,-1.769937,-0.2534549,-0.75997126,-1.4576415,-0.050948236
0.9610265,1.0111387,0.07376078,-0.3167,1.404595,0.84554607,-1.3496238,0.4013594,-0.5121032,-0.08419979,-0.29042867,0.46829677
0.01463034,-0.40049383,0.37429127,0.13125217,1.2508767,2.1671598,0.73411435,-0.71522826,-0.14607054,-0.027315084,-0.22339505,0.8359491
-1.7294369,0.30072036,0.3984187,-0.661914,0.8660599,0.7635458,-0.594312,0.8789687,1.1514851,-0.9454269,0.18395144,0.4470915
-0.6171362,-1.4400967,-0.5404873,-0.06984373,-0.07763783,0.5261611,2.5807085,0.38453794,1.3159407,0.005812237,0.4310888,-0.28528386
0.6383108,-1.1950899,0.9702066,0.3833171,0.6675461,0.051733978,1.2039806,-1.516038,1.243767,-0.8909426,-0.75431967,-0.06661312
-0.5163289,-0.009737742,-1.2450025,-1.246834,-0.62053597,1.8591198,-0.7618542,0.56161666,0.31611538,-0.6636853,-0.04700873,-0.8455726
-0.6088334,-0.24299778,0.84502333,-0.48868975,0.9001724,1.4964552,-0.48783633,1.4354088,0.7923295,1.1390774,-0.09097549,0.46898794
-1.2683955,-0.75455123,1.3119533,1.520675,-0.20887408,-0.071552455,-0.14223066,1.6916296,0.4694004,-0.48832494,1.568053,0.5860936
-1.0310191,0.17223087,3.0373387,-0.41715038,-3.4016109,1.3091384,-1.1950723,-0.1164399,0.6669457,-0.070865564,0.398255,2.4409938
0.4270536,1.189205,0.7675722,0.9895718,-1.2073545,1.7346349,-0.8573248,1.2596564,-1.0657398,0.973238,0.787048,-1.5312659
-0.9109469,-1.4147067,1.7722114,-1.138489,1.0486764,-0.4790368,0.18713489,-0.53735334,0.25623944,-1.9980465,-0.27140555,-2.1687424
2.6969368,1.4547061,0.6385274,1.3136586,-0.6703506,-0.3043986,-0.210447,-2.2643723,0.7795964,-0.42411646,0.1011053,1.1804713
0.12664784,-0.5547971,0.4845105,-0.8998954,-1.2848328,-0.7254522,-2.24164,-0.50440556,0.8897024,-0.600209,-0.7547,-0.06055405
-1.2577171,1.8153495,-1.1302271,-1.0071929,0.79637337,0.9545049,-0.19140583,0.69309264,0.14866126,-0.87486356,-0.33915243,-1.5813938
0.7629227,-1.0936812,0.050650574,0.48265192,1.6317738,-2.3531454,0.5538089,0.31893972,2.3395824,0.8540373,1.8670927,-2.1396706
-1.205033,0.39097297,0.0066512334,-1.4635441,-0.5129856,-2.7970545,0.65805143,2.2937548,1.5304679,0.33618498,-1.1938976,1.4918058
0.67238605,1.1473479,2.3439078,1.146997,0.53051996,-0.15808545,-0.74030644,1.4279188,-0.14244413,0.26297832,-0.3807848,0.061970238
-0.6009506,-0.62940943,-1.5935035,-0.26379198,0.95706135,-0.026310313,-1.0758464,-0.53640884,-0.63819605,-1.2652593,0.13509943,0.014668425
-0.5721289,-0.31634027,3.0244918,-0.017858328,0.6997746,0.9105812,-0.39955255,0.94061875,-0.33218297,-2.0938313,2.2082777,-0.035306685
-2.2894394,0.5881761,-0.37134784,-0.070332564,1.3500342,-0.75278735,-0.22917788,-1.1494855,-2.3808982,-0.5109174,1.2490399,0.7692774
0.538018,-0.5103954,-0.04755201,-0.73710316,0.48222452,-0.7356343,2.4902706,0.41156006,-0.2947113,0.04990938,0.20696336,0.51122874
-1.3698766,0.36103386,0.1924431,-0.44516528,-0.5249579,0.5427508,-0.5048432,0.17374139,0.042610258,0.15292932,0.47333744,0.1672197
0.27604005,-0.17644005,-1.6365651,0.9563518,-2.1120098,-0.03520882,-0.05673103,1.4427742,2.3763268,1.1389006,0.38389862,-0.40691862
-0.3361942,0.05305011,-0.6828924,-0.170058,-0.9690319,-1.1289843,-0.066243805,-0.5156341,0.20792967,1.3188512,-0.7215297,-2.0168207
0.5014321,-0.64929074,-1.4566474,-2.3113425,-1.0566398,0.0015078308,-0.9995532,0.50642955,1.4802142,0.45694667,0.4221414,-0.50668126
0.26326966,-0.25130853,-1.3568094,-0.3739579,-1.5771128,0.89141625,-0.2592645,2.1649473,2.7083447,0.7001899,-0.13250229,0.26768804
-0.05476991,-0.3648797,-1.9271524,-0.8828027,1.6591254,0.0011099179,0.063207805,-0.9028307,0.65868473,0.35357016,1.5287303,0.16806789
0.88462967,0.41407868,-0.55323344,-1.5098308,-0.5380614,-0.16346824,0.7398092,1.7472086,0.76235193,-0.28647304,-0.26582143,0.030399853
0.5232083,-1.6340528,0.4863104,-0.34359163,0.58794427,0.086625844,-1.5256225,2.512391,-1.1146687,-0.25535965,0.5116477,1.1860842
-1.0344853,-0.01282702,0.41642654,1.4083172,-1.0377098,-0.84868735,0.3390736,-0.62727636,-0.501082,0.9048986,0.3073355,-2.7454138
0.7279724,-1.1863207,-0.8410295,-0.2781811,0.5244007,0.22951451,-0.16056488,0.68382406,1.1302698,1.1225324,2.1909125,0.905562
0.18894292,0.6072821,0.17622006,1.2150846,1.6399292,0.7329582,-1.6654898,0.35961914,0.55694646,0.88440174,2.2222414,-0.6383169
0.043664295,-1.4197913,-1.9828038,-0.5311741,1.5670711,-0.44522163,-0.8802962,0.58007103,-0.45659992,0.9734875,-0.46055058,-1.2854737
-0.8960918,0.35294807,-1.9671664,-0.4404799,1.0449822,0.7653631,1.6624858,0.089152366,-2.074972,-1.524181,-0.9157858,-0.04701835
-0.95168096,0.90743494,-1.7409487,-0.7375303,-0.75430876,0.048524912,-2.4163063,-0.10927427,-0.25222448,-0.78359926,-2.062885,1.1711626
0.33959416,0.3309625,1.2878239,0.5804838,-0.6041065,1.6981949,0.09786862,0.77239174,0.39298332,0.99403137,-0.13664486,-1.5012462
-0.41270545,-1.4110153,0.70772636,0.6939166,0.5500932,0.05836308,-0.5111264,0.44699562,0.83657336,-0.43926463,-0.29128006,2.480756
0.7652104,-0.026691431,0.6691655,1.328855,-0.20123893,0.56685746,0.4150249,0.9180288,-1.9217345,0.631062,1.4383032,-0.7341565
-1.8300573,2.3747866,1.3742251,1.3915958,-0.274517,-1.5767401,1.9054267,-0.6081334,-0.44791523,-1.3811179,-0.72232497,0.01703271
1.6779824,-1.7858033,-0.19836867,-1.3251083,0.48279238,2.1891012,-1.0417622,1.3168966,1.1454642,-0.21584865,0.29989433,1.5021534
-0.07096133,0.75259846,-0.638414,-1.039721,1.8838773,-0.21594675,0.37347138,1.4806563,-2.1152256,-0.6624357,0.2832856,0.092692
-0.05841496,0.65855485,2.9967215,0.30840993,1.0488627,2.4701679,-1.2902347,1.1104319,1.567426,0.30114704,-1.4859421,0.41713202
1.9977214,-0.65718913,1.7215191,-0.72255117,-0.73564,-1.3557034,0.5620732,0.34690475,0.05299143,-2.2380083,-0.31826285,-1.0287654
-0.6587964,-2.1618545,0.1988495,-0.30025634,-0.10485494,-1.1429867,1.4633292,-1.0744702,-0.10698051,0.40333748,0.30804187,0.9430629
0.6132769,0.92317945,-0.71926546,0.12735872,0.9647587,0.663712,-0.4621887,1.1194568,0.98348516,0.75942457,-0.13842936,-1.595056
0.745412,-1.187097,0.3748964,-0.29270428,-1.0019554,0.0058068247,-0.6129437,-0.2798145,0.98739284,-0.5389593,0.73539126,-0.0037568654
0.6887641,-0.3101487,-0.44838545,0.06810259,0.08759972,0.1764035,1.0251513,-0.82348585,-1.2279015,-1.4678855,1.6962937,0.067208916
-1.7888488,0.09871393,-0.40115947,1.1892014,0.6998144,-0.61874074,0.610921,-0.4296703,0.18057401,1.7353562,-0.53092057,-0.7886212
-0.21807112,0.8495067,1.64846,0.049267124,1.8067422,-0.052264795,0.78435624,1.5323651,1.095209,0.37769163,0.08199235,1.3923657
0.07109204,-0.059019152,0.45334473,-0.9778162,0.54646844,0.3578462,1.7138684,-0.13670823,-0.13266447,-1.9873438,-1.1503302,-0.008412074
-1.4616039,-0.3521362,1.2817816,-1.0438647,-0.013847309,0.8190445,1.6814964,-0.42626256,2.1455443,0.4573269,-0.6771586,-0.66048384
-0.69295275,-0.38452595,0.29310393,0.8075753,1.1257079,-0.9759147,-0.46779588,-0.8189821,0.4309092,0.7281029,-0.06681634,0.77172124
0.23566511,1.3437012,-0.8583677,-0.67278814,-0.31524518,1.109128,-1.3852764,-0.6315574,-0.087963805,-0.1284608,0.33192748,-0.16740485
0.3198394,0.16406508,1.0688472,-1.1228423,0.43135217,1.067229,0.300185,1.6592814,-1.2303398,0.7343436,0.49030092,-0.7293667
0.7636977,-0.62659097,0.15407427,-1.3956535,0.8104212,-0.758472,1.0237883,0.5366665,0.32978663,-1.8718215,0.58114606,0.38148418
-1.6579614,-0.32667142,0.18632527,-0.8037423,-0.5494769,0.36571494,0.63330835,1.0786449,-1.5678295,-1.0541409,0.024068581,-0.7771427
0.29881963,0.25801295,0.73572075,-0.509496,-1.6685182,-0.11708468,0.73350364,-0.36385876,0.7647437,0.21816784,0.56953907,-0.31216222
-0.6563758,0.6588702,-0.49351546,1.9879549,-0.14641431,-0.1406589,0.66776025,-1.2472017,1.1099645,0.3627255,-0.2573878,-1.7373458
-1.1461825,0.13058269,1.1709902,0.8634026,0.047548883,-0.70119905,-0.016791126,-0.009605499,1.08898,0.08370779,0.646676,-0.29418382
-0.4919569,1.1301746,-0.33553472,-0.5976945,0.12716198,0.042433407,-1.072445,-1.0179641,1.3666867,1.5457138,-0.92289144,0.19131166
0.5855656,-0.94781834,-0.98600703,-0.38927916,-1.7863362,-0.46866527,0.27669474,0.8204538,0.15811713,-1.6856725,-0.6572233,-1.2076758
-3.347755,-0.3904757,-0.12834841,-1.4693757,0.729752,1.4574851,0.420923,0.50609815,0.6880596,0.61960983,1.214151,-0.05927261
-0.45118982,-0.22134796,-0.1600789,-1.2337021,-1.6399313,0.6405149,0.04796323,1.8507702,-0.7338299,0.9097138,0.07970212,1.3043815
-0.07821401,-0.79909974,0.99736977,-2.075976,-0.24057215,0.45107248,-0.17899433,0.7647877,-1.0373544,0.29957426,-2.5899353,-0.2251798
-0.5502649,0.47137058,-0.5663158,-1.30822,0.062405594,-0.5151429,-1.4818594,-0.56916547,-1.7075387,0.049264222,-0.44017422,1.1337788
0.6611599,-0.7736492,0.1129364,0.5867904,-1.6209328,0.05152116,-0.305991,-0.16907692,-0.60998833,0.6871748,-0.2072849,-1.5656029
-1.7935802,-1.2742224,0.32348004,0.3088115,0.49365866,0.42279577,0.4193589,1.1075927,0.29542726,0.13530138,0.16405816,0.2792478
0.028876632,0.71617776,-0.41241395,1.0314957,-0.53396326,-0.098636195,0.028951667,-1.2284577,1.1505433,0.90225077,-1.2232999,-1.8529003
-1.8976073,1.0508593,0.80967313,-0.14375506,-0.3851237,0.5206722,0.17948252,-0.5552748,1.2519515,0.16219945,0.7814645,-0.03269786
-0.0965329,-1.602299,-0.68540055,-0.22833383,-0.6205817,-0.26692837,-0.22934006,0.7014736,-0.087174945,2.3778682,-0.77558213,-2.7536292
0.7550343,1.38998,1.0015231,0.003816039,0.08597197,-0.18329573,-1.0134392,-1.4739883,1.7501088,-0.34165284,-0.20587102,0.97857136
0.7415473,1.2371894,-0.84412384,-0.62544274,-0.07283463,-0.65525633,2.1643932,-1.2540463,-0.65477496,0.6863368,-0.03743119,0.04024511
-0.8831218,-1.6081785,-1.0246989,-0.31730533,0.20673817,-0.6170022,-1.0632197,1.3528012,-0.07921596,0.41334707,0.4113879,0.69548965
-1.3186277,0.86417705,-0.34555864,-1.2644516,-0.5806649,-0.2697312,-1.4985583,1.8865181,1.1326919,-0.050224382,-0.20042445,-0.21913657
-0.642058,-2.3069987,0.4611322,-0.6053994,0.988641,-0.30499482,0.6904476,1.1879581,-1.1631682,-0.73557764,-1.0128495,0.73959583
0.41655877,-0.22426894,1.2727042,-0.29405472,-0.4110998,-0.80064094,0.7464974,-0.89650804,0.91468567,-0.41794762,0.17410034,-0.02203763
0.17421652,-1.1896762,0.8957838,-0.43594855,-0.7154948,1.0537854,0.8568058,-0.27988726,0.6148711,-0.5701135,1.7584233,-2.3511157
-1.2336221,2.0382512,-1.0428282,-1.1709327,-0.19697453,0.7941969,-0.18547545,0.51879364,2.0314963,0.12752362,0.021227473,0.15374403
-1.8527544,-2.1927347,-0.74477655,-1.0842347,-1.1221063,0.414407,-2.2724457,0.56420404,0.14470711,-0.003040718,-0.7337995,0.042872116
0.7202703,0.57263523,0.053050514,-0.9553561,0.12204639,-0.23211399,0.058963668,0.2772266,0.34778735,0.22868502,0.44021642,0.11982419
-1.454753,2.014335,-3.1035988,0.2490293,-0.44726232,0.8036486,-0.6957022,0.13536498,-1.5068775,0.098355636,-0.34673163,-0.9327076
-1.0750834,0.41741568,2.2109873,-0.08718917,0.6670067,-0.7613212,0.042984616,0.21363597,-0.83319306,1.1079977,0.57798433,0.26243478
-0.49657646,0.5193222,0.4209133,1.6327711,1.2686981,-0.8604362,3.163105,0.5339754,-0.12936352,0.7192819,-0.31688643,0.36221248
-0.5369923,0.38249376,-0.568047,-0.31813347,-0.55914223,0.9237005,-0.35097593,0.110353716,-0.09161079,-0.51310366,-0.6496899,-0.5386805
-0.5112984,-0.22819103,0.22199625,-0.5394095,-0.4234348,-0.27124333,-0.33000502,0.47482014,0.97306746,-0.517629,0.02761307,0.18379617
0.8826758,0.2970543,-0.614538,0.21573736,0.016060563,0.25974622,0.3664335,1.3093497,-0.20625581,-0.1639923,-1.3780262,-0.96026546
0.3630576,-0.097806886,0.011900517,-0.5321107,-1.4582195,-0.4681951,0.75325185,0.7085684,1.26029,0.4034077,-1.7001032,0.19052029
-0.27713498,2.6335666,0.11467247,-0.08632765,-0.69033664,1.7687542,1.4309994,-1.0811076,0.3029344,-0.29900858,-0.09048483,-0.9212126
1.4321762,0.87636626,-0.42117977,1.6535344,-0.38265544,-0.96142507,0.559833,-0.43108496,0.51588225,0.5225798,-0.002666258,-1.277712
0.40860832,-2.0461338,2.349529,0.88762623,-0.09315056,2.1903567,0.23618536,0.6200921,-0.30616614,1.3684757,0.08974022,-0.048137084
1.5260366,-0.7504476,2.100999,0.5366269,0.85589683,0.31433728,-0.5718619,0.21509583,0.84351844,0.6143895,0.33066234,0.025147008
-0.6185355,-0.4921459,-1.2915573,-1.256136,-0.84861976,-0.80657125,0.8662844,-2.2061772,1.2578249,-0.345436,-1.1865543,0.500776
0.20970607,0.30896506,-0.4172982,-0.6307787,0.74967724,-0.20724468,-1.0902497,0.59489787,-0.91401696,-0.6255747,1.2098197,0.42470366
0.25374028,0.2544539,0.50069845,-0.7878576,-1.2422037,0.027810853,-0.36876512,-0.5503915,1.2097594,-1.2905234,-0.62307835,0.60856366
-0.74573886,2.4482892,-0.33659253,-0.96893996,-1.3090215,-2.072862,-0.39587733,0.63347346,0.7859283,1.1212379,-1.670422,0.8373406
-1.1509268,1.465532,0.060119256,-0.5282795,-0.71309346,0.4773638,-0.78160816,-0.46517172,-0.6605688,0.5070236,0.24275012,0.9123249
0.11452021,-1.6386673,-1.3349621,-0.27555063,-2.507323,-0.40393403,-0.048840094,-1.0650836,-0.20955166,-0.4590868,-0.9082192,0.38935032
-1.3235428,0.014955219,0.7798874,-0.42168117,-0.37680057,-0.6641636,-1.0217361,-1.6017082,-0.91475123,-1.210273,2.244155,-0.20604774
1.818172,0.9303433,-0.96531695,0.072245605,1.8567622,-0.8993066,-0.78994083,1.0920422,-0.5730243,1.8123343,1.3932987,2.0745537
-0.681137,-0.34290037,0.368656,0.27483582,-0.80602187,0.49525586,-0.33124706,0.0737173,-1.1317791,0.8169672,-0.37335306,-0.6767587
0.53524375,-0.39878532,0.18478611,-0.389493,1.0294777,1.8420227,0.7260115,-0.5499525,-0.33702517,0.89839643,1.6506354,2.2068439
1.4701083,0.08546285,-0.7096905,-2.4751773,-0.6282631,-0.95313156,-0.3588003,1.0419742,-0.35243374,-1.7029005,0.19239801,0.7254875
-0.01313917,0.5571672,0.75421464,-0.7939042,0.9598359,0.17121729,-0.38526514,-0.31718028,-0.06121122,-0.47000924,-0.053220212,0.65045047
-0.56915593,0.58942103,0.0617039,0.16938296,-0.09400226,0.44912592,-0.66998273,-1.2833283,0.26669487,-1.4917032,0.6732515,1.4688143
0.08586075,1.7700913,0.31812692,-0.20102128,-2.0023563,0.024535818,0.96389,-0.78224903,0.4118882,0.53912157,0.7455771,0.5796696
-1.4176444,1.8470193,-0.5852444,-1.1721958,0.24380171,1.2264817,0.4985295,-0.86495024,0.73909104,-1.7401922,0.79315937,-0.075760305
-0.3098232,0.5454061,0.24055737,-0.7384859,2.1227283,1.6431537,-0.14579546,0.11501254,0.39318374,0.24571738,-0.8101856,-0.094027
0.69936275,-0.9928287,2.0485892,-0.095070794,-1.1669942,-0.8707502,0.3097995,0.3192357,0.28831547,-1.3105521,0.28983837,-0.025651447
-1.423966,-0.2131215,-0.3778992,0.22327627,0.23621912,-0.1207406,-0.8560715,0.71995914,0.69756997,-0.46090165,-0.93534654,-0.2214319
-0.5513161,1.0949254,-0.5345734,-0.8247869,0.22184399,-1.155212,1.8950776,0.3570918,-2.2004116,1.9045347,1.465269,0.075191915
-0.97892565,-1.0163623,-0.8931892,-0.06264358,-0.092621796,1.3936411,-1.0076663,0.08758736,0.019956846,-0.90968335,-0.81638414,-1.241361
0.70376414,-1.2918992,-0.98095906,1.0870359,1.7129625,0.7216026,-0.4108473,0.7826954,0.15390994,0.4679939,0.12394606,-0.12885034
1.69708,0.16095245,1.7778084,0.084421046,-0.13349086,-0.5085838,-0.17008767,0.1072783,1.434349,-1.141125,1.2681638,0.26022822
-1.090859,0.15220883,2.1187358,0.88745606,-0.43208107,0.123085134,1.3202126,-1.101511,-0.7401322,0.68513197,-0.21483436,-0.3440725
0.5567829,-0.498792,-0.15151045,-0.07013045,0.75914496,1.6616079,0.16876704,-0.7494971,1.0250658,-0.045086112,0.28498673,-0.08922333
0.7075038,-1.1017632,0.30402792,-2.5152252,0.3895671,0.30581006,-0.4607483,-0.025816776,-0.103777386,-1.4145687,-0.004270369,-0.36657593
-0.13947968,-0.0064576906,0.2030043,-0.12543537,0.93695986,-0.5529592,2.0217216,-1.8483282,0.09096957,0.72472554,-1.185195,1.9712938
-1.2452267,-0.31487727,1.233513,1.0358318,1.1571736,-0.56442255,-0.72558063,0.5784638,0.5055849,0.23946884,0.6734101,0.2574975
